## Type: filter
## Name: Chroma Et442/46m
wavelength,transmission
300.0000,-0.00004
301.0000,-0.00001
302.0000,0.00002
303.0000,0.00002
304.0000,0.00002
305.0000,0.00000
306.0000,0.00011
307.0000,0.00004
308.0000,0.00003
309.0000,0.00010
310.0000,0.00004
311.0000,-0.00001
312.0000,-0.00001
313.0000,-0.00002
314.0000,-0.00007
315.0000,-0.00003
316.0000,0.00002
317.0000,-0.00005
318.0000,-0.00001
319.0000,0.00000
320.0000,0.00003
321.0000,0.00005
322.0000,0.00006
323.0000,0.00001
324.0000,0.00004
325.0000,0.00003
326.0000,0.00002
327.0000,0.00010
328.0000,0.00008
329.0000,0.00003
330.0000,-0.00001
331.0000,-0.00004
332.0000,0.00007
333.0000,0.00004
334.0000,0.00009
335.0000,0.00001
336.0000,0.00000
337.0000,0.00005
338.0000,0.00006
339.0000,-0.00004
340.0000,0.00005
341.0000,0.00007
342.0000,-0.00003
343.0000,-0.00005
344.0000,-0.00002
345.0000,-0.00004
346.0000,0.00001
347.0000,0.00002
348.0000,-0.00001
349.0000,0.00005
350.0000,0.00001
351.0000,0.00002
352.0000,0.00000
353.0000,0.00004
354.0000,0.00001
355.0000,-0.00001
356.0000,0.00001
357.0000,-0.00001
358.0000,0.00003
359.0000,0.00003
360.0000,0.00002
361.0000,0.00005
362.0000,0.00002
363.0000,0.00001
364.0000,0.00002
365.0000,0.00003
366.0000,0.00002
367.0000,0.00005
368.0000,0.00007
369.0000,0.00004
370.0000,0.00006
371.0000,0.00003
372.0000,0.00007
373.0000,0.00003
374.0000,0.00004
375.0000,0.00004
376.0000,0.00004
377.0000,0.00003
378.0000,0.00003
379.0000,0.00004
380.0000,0.00003
381.0000,0.00003
382.0000,0.00004
383.0000,0.00001
384.0000,0.00002
385.0000,0.00002
386.0000,0.00000
387.0000,0.00001
388.0000,0.00003
389.0000,0.00003
390.0000,0.00003
391.0000,0.00003
392.0000,0.00001
393.0000,0.00002
394.0000,0.00004
395.0000,0.00006
396.0000,0.00006
397.0000,0.00007
398.0000,0.00009
399.0000,0.00007
400.0000,0.00003
401.0000,0.00007
402.0000,0.00007
403.0000,0.00009
404.0000,0.00010
405.0000,0.00010
406.0000,0.00014
407.0000,0.00016
408.0000,0.00006
409.0000,0.00006
410.0000,0.00004
411.0000,0.00003
412.0000,0.00004
413.0000,0.00005
414.0000,0.00008
415.0000,0.00014
416.0000,0.00126
417.0000,0.02009
418.0000,0.82836
419.0000,38.72360
420.0000,90.63660
421.0000,95.08840
422.0000,96.01830
423.0000,96.58160
424.0000,96.81080
425.0000,97.10790
426.0000,97.27610
427.0000,97.20050
428.0000,97.27350
429.0000,97.00830
430.0000,97.31960
431.0000,97.62990
432.0000,97.66760
433.0000,97.22960
434.0000,97.18940
435.0000,97.40670
436.0000,97.31480
437.0000,97.76950
438.0000,97.61840
439.0000,97.71410
440.0000,98.00720
441.0000,97.82370
442.0000,97.37000
443.0000,97.44180
444.0000,97.75370
445.0000,97.48400
446.0000,97.82140
447.0000,98.27400
448.0000,98.06530
449.0000,97.89590
450.0000,97.75340
451.0000,98.06470
452.0000,98.11360
453.0000,97.79610
454.0000,97.20710
455.0000,97.65530
456.0000,97.17080
457.0000,96.86520
458.0000,97.45250
459.0000,97.30300
460.0000,97.24730
461.0000,95.74240
462.0000,94.90040
463.0000,95.25130
464.0000,93.99650
465.0000,53.16700
466.0000,3.95422
467.0000,0.33375
468.0000,0.01989
469.0000,0.00120
470.0000,0.00015
471.0000,0.00004
472.0000,0.00001
473.0000,0.00001
474.0000,0.00001
475.0000,-0.00001
476.0000,0.00000
477.0000,0.00000
478.0000,0.00000
479.0000,0.00002
480.0000,0.00002
481.0000,0.00002
482.0000,0.00003
483.0000,0.00007
484.0000,0.00004
485.0000,0.00002
486.0000,0.00003
487.0000,0.00007
488.0000,0.00008
489.0000,0.00005
490.0000,0.00006
491.0000,0.00005
492.0000,0.00002
493.0000,0.00001
494.0000,0.00002
495.0000,0.00007
496.0000,0.00005
497.0000,0.00001
498.0000,0.00001
499.0000,0.00002
500.0000,0.00005
501.0000,0.00007
502.0000,0.00003
503.0000,0.00002
504.0000,0.00002
505.0000,0.00001
506.0000,0.00002
507.0000,0.00006
508.0000,0.00007
509.0000,0.00003
510.0000,0.00001
511.0000,0.00002
512.0000,0.00001
513.0000,0.00005
514.0000,0.00009
515.0000,0.00008
516.0000,0.00005
517.0000,0.00002
518.0000,0.00001
519.0000,0.00003
520.0000,0.00005
521.0000,0.00003
522.0000,0.00001
523.0000,0.00001
524.0000,0.00001
525.0000,0.00004
526.0000,0.00010
527.0000,0.00009
528.0000,0.00004
529.0000,0.00004
530.0000,0.00005
531.0000,0.00004
532.0000,0.00001
533.0000,0.00001
534.0000,0.00001
535.0000,0.00002
536.0000,0.00000
537.0000,0.00000
538.0000,0.00000
539.0000,0.00001
540.0000,0.00004
541.0000,0.00006
542.0000,0.00004
543.0000,0.00003
544.0000,0.00005
545.0000,0.00005
546.0000,0.00002
547.0000,0.00000
548.0000,0.00000
549.0000,0.00001
550.0000,0.00001
551.0000,0.00003
552.0000,0.00006
553.0000,0.00007
554.0000,0.00006
555.0000,0.00005
556.0000,0.00005
557.0000,0.00006
558.0000,0.00006
559.0000,0.00007
560.0000,0.00006
561.0000,0.00003
562.0000,0.00002
563.0000,0.00002
564.0000,0.00003
565.0000,0.00005
566.0000,0.00008
567.0000,0.00008
568.0000,0.00004
569.0000,0.00002
570.0000,0.00002
571.0000,0.00003
572.0000,0.00003
573.0000,0.00004
574.0000,0.00004
575.0000,0.00005
576.0000,0.00002
577.0000,0.00001
578.0000,0.00001
579.0000,0.00001
580.0000,0.00000
581.0000,0.00000
582.0000,0.00001
583.0000,-0.00001
584.0000,0.00001
585.0000,0.00002
586.0000,0.00003
587.0000,0.00003
588.0000,0.00002
589.0000,0.00004
590.0000,0.00008
591.0000,0.00008
592.0000,0.00004
593.0000,0.00002
594.0000,0.00000
595.0000,-0.00002
596.0000,0.00000
597.0000,-0.00001
598.0000,-0.00001
599.0000,0.00000
600.0000,0.00000
601.0000,0.00001
602.0000,0.00006
603.0000,0.00004
604.0000,0.00001
605.0000,-0.00001
606.0000,0.00000
607.0000,0.00000
608.0000,0.00001
609.0000,0.00001
610.0000,0.00002
611.0000,0.00005
612.0000,0.00005
613.0000,0.00003
614.0000,0.00003
615.0000,0.00001
616.0000,0.00000
617.0000,0.00000
618.0000,0.00000
619.0000,0.00000
620.0000,0.00002
621.0000,0.00001
622.0000,0.00002
623.0000,0.00003
624.0000,0.00001
625.0000,0.00002
626.0000,0.00001
627.0000,0.00001
628.0000,0.00002
629.0000,0.00004
630.0000,0.00009
631.0000,0.00014
632.0000,0.00009
633.0000,0.00005
634.0000,0.00003
635.0000,0.00003
636.0000,0.00003
637.0000,0.00003
638.0000,0.00001
639.0000,0.00001
640.0000,0.00002
641.0000,0.00002
642.0000,0.00003
643.0000,0.00006
644.0000,0.00008
645.0000,0.00009
646.0000,0.00007
647.0000,0.00006
648.0000,0.00005
649.0000,0.00006
650.0000,0.00004
651.0000,0.00004
652.0000,0.00002
653.0000,0.00001
654.0000,0.00002
655.0000,0.00001
656.0000,0.00002
657.0000,0.00002
658.0000,0.00003
659.0000,0.00004
660.0000,0.00004
661.0000,0.00007
662.0000,0.00005
663.0000,0.00006
664.0000,0.00007
665.0000,0.00008
666.0000,0.00007
667.0000,0.00005
668.0000,0.00003
669.0000,0.00003
670.0000,0.00003
671.0000,0.00004
672.0000,0.00004
673.0000,0.00003
674.0000,0.00004
675.0000,0.00004
676.0000,0.00005
677.0000,0.00006
678.0000,0.00006
679.0000,0.00006
680.0000,0.00006
681.0000,0.00009
682.0000,0.00007
683.0000,0.00004
684.0000,0.00004
685.0000,0.00004
686.0000,0.00005
687.0000,0.00007
688.0000,0.00008
689.0000,0.00007
690.0000,0.00004
691.0000,0.00004
692.0000,0.00004
693.0000,0.00003
694.0000,0.00003
695.0000,0.00003
696.0000,0.00004
697.0000,0.00003
698.0000,0.00003
699.0000,0.00003
700.0000,0.00006
701.0000,0.00003
702.0000,0.00003
703.0000,0.00004
704.0000,0.00007
705.0000,0.00008
706.0000,0.00009
707.0000,0.00007
708.0000,0.00008
709.0000,0.00004
710.0000,0.00003
711.0000,0.00002
712.0000,0.00005
713.0000,0.00003
714.0000,0.00002
715.0000,0.00004
716.0000,0.00007
717.0000,0.00005
718.0000,0.00008
719.0000,0.00008
720.0000,0.00008
721.0000,0.00009
722.0000,0.00005
723.0000,0.00004
724.0000,0.00007
725.0000,0.00004
726.0000,0.00006
727.0000,0.00004
728.0000,0.00004
729.0000,0.00004
730.0000,0.00005
731.0000,0.00006
732.0000,0.00001
733.0000,0.00005
734.0000,0.00004
735.0000,0.00004
736.0000,0.00005
737.0000,0.00004
738.0000,0.00003
739.0000,0.00005
740.0000,0.00008
741.0000,0.00006
742.0000,0.00003
743.0000,0.00004
744.0000,0.00006
745.0000,0.00004
746.0000,0.00005
747.0000,0.00006
748.0000,0.00004
749.0000,0.00008
750.0000,0.00011
751.0000,0.00010
752.0000,0.00009
753.0000,0.00011
754.0000,0.00009
755.0000,0.00002
756.0000,0.00009
757.0000,0.00005
758.0000,0.00007
759.0000,0.00004
760.0000,0.00004
761.0000,0.00007
762.0000,0.00005
763.0000,0.00007
764.0000,0.00005
765.0000,0.00006
766.0000,0.00008
767.0000,0.00007
768.0000,0.00010
769.0000,0.00008
770.0000,0.00003
771.0000,0.00003
772.0000,0.00002
773.0000,0.00006
774.0000,0.00005
775.0000,0.00005
776.0000,0.00005
777.0000,0.00001
778.0000,0.00000
779.0000,0.00006
780.0000,0.00002
781.0000,0.00004
782.0000,0.00006
783.0000,0.00003
784.0000,0.00005
785.0000,0.00009
786.0000,0.00006
787.0000,0.00010
788.0000,0.00008
789.0000,0.00003
790.0000,0.00008
791.0000,0.00009
792.0000,0.00004
793.0000,0.00008
794.0000,0.00009
795.0000,0.00003
796.0000,-0.00002
797.0000,0.00003
798.0000,0.00000
799.0000,0.00021
800.0000,0.00006
801.0000,0.00006
802.0000,0.00006
803.0000,0.00012
804.0000,0.00005
805.0000,0.00013
806.0000,0.00009
807.0000,0.00008
808.0000,0.00015
809.0000,0.00007
810.0000,0.00009
811.0000,0.00010
812.0000,0.00011
813.0000,0.00012
814.0000,0.00014
815.0000,0.00010
816.0000,0.00010
817.0000,0.00010
818.0000,0.00009
819.0000,0.00011
820.0000,0.00013
821.0000,0.00015
822.0000,0.00011
823.0000,0.00009
824.0000,0.00011
825.0000,0.00006
826.0000,0.00005
827.0000,0.00008
828.0000,0.00009
829.0000,0.00002
830.0000,0.00008
831.0000,0.00008
832.0000,0.00004
833.0000,0.00009
834.0000,0.00010
835.0000,0.00011
836.0000,0.00007
837.0000,0.00013
838.0000,0.00005
839.0000,0.00011
840.0000,0.00008
841.0000,0.00010
842.0000,0.00014
843.0000,0.00011
844.0000,0.00011
845.0000,0.00014
846.0000,0.00010
847.0000,0.00013
848.0000,0.00012
849.0000,0.00011
850.0000,0.00010
851.0000,0.00012
852.0000,0.00010
853.0000,0.00011
854.0000,0.00009
855.0000,0.00011
856.0000,0.00012
857.0000,0.00010
858.0000,0.00010
859.0000,0.00010
860.0000,0.00008
861.0000,0.00008
862.0000,0.00006
863.0000,0.00009
864.0000,0.00007
865.0000,0.00008
866.0000,0.00008
867.0000,0.00008
868.0000,0.00008
869.0000,0.00008
870.0000,0.00010
871.0000,0.00012
872.0000,0.00009
873.0000,0.00010
874.0000,0.00010
875.0000,0.00011
876.0000,0.00009
877.0000,0.00010
878.0000,0.00008
879.0000,0.00009
880.0000,0.00007
881.0000,0.00006
882.0000,0.00006
883.0000,0.00005
884.0000,0.00005
885.0000,0.00002
886.0000,0.00004
887.0000,0.00004
888.0000,0.00003
889.0000,0.00004
890.0000,0.00004
891.0000,0.00002
892.0000,0.00005
893.0000,0.00003
894.0000,0.00002
895.0000,0.00003
896.0000,0.00003
897.0000,0.00004
898.0000,0.00002
899.0000,0.00004
900.0000,0.00004
901.0000,0.00005
902.0000,0.00004
903.0000,0.00006
904.0000,0.00006
905.0000,0.00007
906.0000,0.00009
907.0000,0.00009
908.0000,0.00010
909.0000,0.00011
910.0000,0.00010
911.0000,0.00012
912.0000,0.00010
913.0000,0.00012
914.0000,0.00012
915.0000,0.00009
916.0000,0.00011
917.0000,0.00010
918.0000,0.00010
919.0000,0.00011
920.0000,0.00009
921.0000,0.00007
922.0000,0.00005
923.0000,0.00006
924.0000,0.00007
925.0000,0.00006
926.0000,0.00007
927.0000,0.00005
928.0000,0.00006
929.0000,0.00009
930.0000,0.00007
931.0000,0.00005
932.0000,0.00007
933.0000,0.00008
934.0000,0.00007
935.0000,0.00009
936.0000,0.00008
937.0000,0.00009
938.0000,0.00006
939.0000,0.00006
940.0000,0.00007
941.0000,0.00006
942.0000,0.00004
943.0000,0.00006
944.0000,0.00003
945.0000,0.00004
946.0000,0.00005
947.0000,0.00005
948.0000,0.00004
949.0000,0.00006
950.0000,0.00004
951.0000,0.00005
952.0000,0.00007
953.0000,0.00005
954.0000,0.00003
955.0000,0.00006
956.0000,0.00008
957.0000,0.00007
958.0000,0.00007
959.0000,0.00009
960.0000,0.00008
961.0000,0.00008
962.0000,0.00010
963.0000,0.00009
964.0000,0.00011
965.0000,0.00012
966.0000,0.00010
967.0000,0.00011
968.0000,0.00012
969.0000,0.00010
970.0000,0.00009
971.0000,0.00009
972.0000,0.00007
973.0000,0.00006
974.0000,0.00006
975.0000,0.00006
976.0000,0.00004
977.0000,0.00006
978.0000,0.00004
979.0000,0.00004
980.0000,0.00005
981.0000,0.00006
982.0000,0.00005
983.0000,0.00007
984.0000,0.00005
985.0000,0.00004
986.0000,0.00005
987.0000,0.00005
988.0000,0.00006
989.0000,0.00005
990.0000,0.00006
991.0000,0.00007
992.0000,0.00006
993.0000,0.00006
994.0000,0.00008
995.0000,0.00008
996.0000,0.00009
997.0000,0.00010
998.0000,0.00010
999.0000,0.00011
1000.0000,0.00009
1001.0000,0.00009
1002.0000,0.00011
1003.0000,0.00011
1004.0000,0.00012
1005.0000,0.00014
1006.0000,0.00017
1007.0000,0.00018
1008.0000,0.00021
1009.0000,0.00028
1010.0000,0.00032
1011.0000,0.00037
1012.0000,0.00040
1013.0000,0.00043
1014.0000,0.00043
1015.0000,0.00041
1016.0000,0.00038
1017.0000,0.00034
1018.0000,0.00032
1019.0000,0.00028
1020.0000,0.00027
1021.0000,0.00026
1022.0000,0.00026
1023.0000,0.00026
1024.0000,0.00026
1025.0000,0.00027
1026.0000,0.00027
1027.0000,0.00032
1028.0000,0.00036
1029.0000,0.00042
1030.0000,0.00047
1031.0000,0.00058
1032.0000,0.00067
1033.0000,0.00077
1034.0000,0.00088
1035.0000,0.00093
1036.0000,0.00095
1037.0000,0.00091
1038.0000,0.00085
1039.0000,0.00075
1040.0000,0.00070
1041.0000,0.00063
1042.0000,0.00058
1043.0000,0.00053
1044.0000,0.00050
1045.0000,0.00048
1046.0000,0.00048
1047.0000,0.00047
1048.0000,0.00049
1049.0000,0.00052
1050.0000,0.00056
1051.0000,0.00057
1052.0000,0.00065
1053.0000,0.00071
1054.0000,0.00081
1055.0000,0.00096
1056.0000,0.00112
1057.0000,0.00136
1058.0000,0.00169
1059.0000,0.00213
1060.0000,0.00274
1061.0000,0.00365
1062.0000,0.00491
1063.0000,0.00689
1064.0000,0.00987
1065.0000,0.01459
1066.0000,0.02243
1067.0000,0.03571
1068.0000,0.05916
1069.0000,0.10213
1070.0000,0.18518
1071.0000,0.34537
1072.0000,0.64142
1073.0000,1.15262
1074.0000,1.78315
1075.0000,2.28622
1076.0000,2.26907
1077.0000,1.89305
1078.0000,1.41182
1079.0000,1.01574
1080.0000,0.74046
1081.0000,0.55649
1082.0000,0.44174
1083.0000,0.36633
1084.0000,0.31601
1085.0000,0.28511
1086.0000,0.26826
1087.0000,0.26235
1088.0000,0.26523
1089.0000,0.28045
1090.0000,0.30872
1091.0000,0.35272
1092.0000,0.41939
1093.0000,0.52246
1094.0000,0.68876
1095.0000,0.95529
1096.0000,1.44078
1097.0000,2.41957
1098.0000,4.65225
1099.0000,11.33800
1100.0000,32.32870
