#Typical Measured Spectrum of Semrock FF538-FDi01 Optical Filter	
#For wavelengths between 320 and 1120 nm, values near or below 3e-7 (Optical Density 6.5) are measurement noise limited.
#For wavelengths < 320 nm and > 1120 nm, values near or below 3e-6 (Optical Density 5.5) are measurement noise limited. 
#Data format:  Wavelength (nm) <tab> Transmission (0 to 1)
#Type: dichroic,
#Name: Semrock FF409-Di03
wavelength,transmission
320.0, 0.18754
320.2, 0.17215
320.4, 0.15808
320.6, 0.14396
320.8, 0.12862
321.0, 0.11496
321.2, 0.10062
321.4, 0.08705
321.6, 0.07387
321.8, 0.06489
322.0, 0.05737
322.2, 0.051
322.4, 0.04789
322.6, 0.04506
322.8, 0.04331
323.0, 0.0418
323.2, 0.04035
323.4, 0.03871
323.6, 0.03787
323.8, 0.03577
324.0, 0.03304
324.2, 0.03021
324.4, 0.02693
324.6, 0.0242
324.8, 0.02186
325.0, 0.01948
325.2, 0.01818
325.4, 0.01723
325.6, 0.01715
325.8, 0.01676
326.0, 0.01663
326.2, 0.0175
326.4, 0.01793
326.6, 0.01818
326.8, 0.01782
327.0, 0.0178
327.2, 0.01697
327.4, 0.01593
327.6, 0.01451
327.8, 0.01319
328.0, 0.01168
328.2, 0.01058
328.4, 0.00967
328.6, 0.0092
328.8, 0.00869
329.0, 0.00871
329.2, 0.00895
329.4, 0.0092
329.6, 0.00987
329.8, 0.01008
330.0, 0.01083
330.2, 0.01114
330.4, 0.01102
330.6, 0.01096
330.8, 0.01018
331.0, 0.00946
331.2, 0.00849
331.4, 0.00765
331.6, 0.00697
331.8, 0.00649
332.0, 0.00638
332.2, 0.00605
332.4, 0.00614
332.6, 0.00665
332.8, 0.00701
333.0, 0.00754
333.2, 0.00819
333.4, 0.00883
333.6, 0.00899
333.8, 0.00928
334.0, 0.00923
334.2, 0.00855
334.4, 0.00838
334.6, 0.00746
334.8, 0.00685
335.0, 0.00653
335.2, 0.00656
335.4, 0.00624
335.6, 0.00645
335.8, 0.00648
336.0, 0.00684
336.2, 0.00717
336.4, 0.00793
336.6, 0.00852
336.8, 0.00916
337.0, 0.00956
337.2, 0.00961
337.4, 0.0097
337.6, 0.00908
337.8, 0.00866
338.0, 0.00787
338.2, 0.00704
338.4, 0.00663
338.6, 0.00611
338.8, 0.00578
339.0, 0.00576
339.2, 0.00579
339.4, 0.00619
339.6, 0.00691
339.8, 0.00755
340.0, 0.00834
340.2, 0.009
340.4, 0.00967
340.6, 0.00977
340.8, 0.00988
341.0, 0.00946
341.2, 0.00885
341.4, 0.00801
341.6, 0.0072
341.8, 0.00632
342.0, 0.0059
342.2, 0.00555
342.4, 0.00529
342.6, 0.00545
342.8, 0.00561
343.0, 0.00605
343.2, 0.00665
343.4, 0.00727
343.6, 0.00786
343.8, 0.00857
344.0, 0.00895
344.2, 0.00906
344.4, 0.00879
344.6, 0.00836
344.8, 0.00765
345.0, 0.00683
345.2, 0.00595
345.4, 0.00546
345.6, 0.00489
345.8, 0.00456
346.0, 0.00444
346.2, 0.00444
346.4, 0.00481
346.6, 0.00511
346.8, 0.00541
347.0, 0.00604
347.2, 0.00656
347.4, 0.00714
347.6, 0.00728
347.8, 0.00751
348.0, 0.00728
348.2, 0.00687
348.4, 0.00642
348.6, 0.00571
348.8, 0.00498
349.0, 0.00446
349.2, 0.00401
349.4, 0.0036
349.6, 0.0034
349.8, 0.0033
350.0, 0.00346
350.2, 0.00371
350.4, 0.00389
350.6, 0.00428
350.8, 0.00468
351.0, 0.00515
351.2, 0.0055
351.4, 0.00582
351.6, 0.00599
351.8, 0.00593
352.0, 0.00567
352.2, 0.00518
352.4, 0.00472
352.6, 0.00422
352.8, 0.00367
353.0, 0.00321
353.2, 0.00294
353.4, 0.0028
353.6, 0.00257
353.8, 0.00257
354.0, 0.00273
354.2, 0.00293
354.4, 0.00306
354.6, 0.00341
354.8, 0.00372
355.0, 0.00414
355.2, 0.0046
355.4, 0.00486
355.6, 0.00507
355.8, 0.00507
356.0, 0.00488
356.2, 0.00458
356.4, 0.00424
356.6, 0.00366
356.8, 0.00324
357.0, 0.00286
357.2, 0.00255
357.4, 0.00231
357.6, 0.00225
357.8, 0.0022
358.0, 0.00224
358.2, 0.00234
358.4, 0.00257
358.6, 0.00279
358.8, 0.00313
359.0, 0.00357
359.2, 0.00395
359.4, 0.00441
359.6, 0.00468
359.8, 0.0049
360.0, 0.00488
360.2, 0.00489
360.4, 0.00447
360.6, 0.00399
360.8, 0.00352
361.0, 0.00304
361.2, 0.00268
361.4, 0.00237
361.6, 0.00227
361.8, 0.00207
362.0, 0.00202
362.2, 0.00212
362.4, 0.00224
362.6, 0.00231
362.8, 0.00252
363.0, 0.0029
363.2, 0.00347
363.4, 0.00395
363.6, 0.00457
363.8, 0.00483
364.0, 0.0053
364.2, 0.00552
364.4, 0.00542
364.6, 0.00522
364.8, 0.00465
365.0, 0.00427
365.2, 0.00386
365.4, 0.00323
365.6, 0.0028
365.8, 0.00251
366.0, 0.00232
366.2, 0.00217
366.4, 0.00204
366.6, 0.00208
366.8, 0.00225
367.0, 0.00234
367.2, 0.00257
367.4, 0.0031
367.6, 0.0037
367.8, 0.00452
368.0, 0.00539
368.2, 0.00603
368.4, 0.00644
368.6, 0.00668
368.8, 0.00658
369.0, 0.00612
369.2, 0.00554
369.4, 0.00474
369.6, 0.00401
369.8, 0.00328
370.0, 0.00285
370.2, 0.00245
370.4, 0.00216
370.6, 0.00206
370.8, 0.00212
371.0, 0.00208
371.2, 0.00233
371.4, 0.00271
371.6, 0.00346
371.8, 0.00433
372.0, 0.00537
372.2, 0.00646
372.4, 0.00722
372.6, 0.00782
372.8, 0.00797
373.0, 0.00779
373.2, 0.00726
373.4, 0.00608
373.6, 0.00514
373.8, 0.00386
374.0, 0.00312
374.2, 0.00247
374.4, 0.00213
374.6, 0.0019
374.8, 0.00191
375.0, 0.00213
375.2, 0.0025
375.4, 0.00323
375.6, 0.00444
375.8, 0.006
376.0, 0.00765
376.2, 0.00851
376.4, 0.00908
376.6, 0.00934
376.8, 0.00892
377.0, 0.00794
377.2, 0.00675
377.4, 0.00487
377.6, 0.00331
377.8, 0.00224
378.0, 0.00159
378.2, 0.00117
378.4, 0.00102
378.6, 0.00146
378.8, 0.00218
379.0, 0.00333
379.2, 0.00437
379.4, 0.00496
379.6, 0.00544
379.8, 0.00538
380.0, 0.00523
380.2, 0.00465
380.4, 0.0036
380.6, 0.00242
380.8, 0.00126
381.0, 5.8372e-04
381.2, 2.9793e-04
381.4, 1.9538e-04
381.6, 1.8811e-04
381.8, 1.2583e-04
382.0, 1.3054e-04
382.2, 1.6906e-04
382.4, 8.2189e-05
382.6, 8.8076e-05
382.8, 6.8536e-05
383.0, 1.1321e-04
383.2, 4.916e-05
383.4, 1.3063e-04
383.6, 6.0195e-05
383.8, 7.7908e-05
384.0, 1.4633e-04
384.2, 1.4496e-04
384.4, 8.6413e-05
384.6, 1.3621e-04
384.8, 8.9096e-05
385.0, 1.2847e-04
385.2, 1.083e-04
385.4, 1.3889e-04
385.6, 1.368e-04
385.8, 6.1265e-05
386.0, 1.6804e-04
386.2, 9.1892e-05
386.4, 1.5287e-04
386.6, 9.9916e-05
386.8, 6.1506e-05
387.0, 1.4335e-04
387.2, 9.9928e-05
387.4, 5.69e-05
387.6, 4.2684e-05
387.8, 9.6224e-05
388.0, 8.1089e-05
388.2, 5.499e-05
388.4, 5.4623e-05
388.6, 4.2447e-05
388.8, 3.9788e-05
389.0, 1.0766e-04
389.2, 4.1943e-05
389.4, 4.4553e-05
389.6, 4.556e-05
389.8, 4.0963e-05
390.0, 7.7633e-05
390.2, 3.8422e-05
390.4, 4.9081e-05
390.6, 4.388e-05
390.8, 8.8142e-05
391.0, 7.3831e-05
391.2, 4.3133e-05
391.4, 4.3559e-05
391.6, 6.8571e-05
391.8, 6.3819e-05
392.0, 5.2922e-05
392.2, 7.8085e-05
392.4, 3.6174e-05
392.6, 5.5673e-05
392.8, 5.448e-05
393.0, 1.1669e-04
393.2, 9.6962e-05
393.4, 4.3757e-05
393.6, 4.3829e-05
393.8, 6.141e-05
394.0, 1.1118e-04
394.2, 6.3934e-05
394.4, 7.874e-05
394.6, 4.6965e-05
394.8, 3.5331e-05
395.0, 9.9482e-05
395.2, 1.1975e-04
395.4, 1.022e-04
395.6, 9.1885e-05
395.8, 3.7267e-05
396.0, 8.082e-05
396.2, 3.3765e-05
396.4, 9.1384e-05
396.6, 3.8821e-05
396.8, 3.5017e-05
397.0, 0.00698
397.2, 0.01402
397.4, 0.01431
397.6, 0.01469
397.8, 0.01487
398.0, 0.0148
398.2, 0.01523
398.4, 0.01536
398.6, 0.01553
398.8, 0.01572
399.0, 0.01585
399.2, 0.01591
399.4, 0.01616
399.6, 0.01627
399.8, 0.0166
400.0, 0.01661
400.2, 0.01686
400.4, 0.01713
400.6, 0.0172
400.8, 0.01741
401.0, 0.01775
401.2, 0.01789
401.4, 0.01808
401.6, 0.01831
401.8, 0.01866
402.0, 0.01871
402.2, 0.01921
402.4, 0.01954
402.6, 0.02007
402.8, 0.02074
403.0, 0.02177
403.2, 0.02258
403.4, 0.02424
403.6, 0.02637
403.8, 0.03001
404.0, 0.03457
404.2, 0.04217
404.4, 0.05346
404.6, 0.07027
404.8, 0.0934
405.0, 0.1226
405.2, 0.157
405.4, 0.1938
405.6, 0.2318
405.8, 0.26844
406.0, 0.30335
406.2, 0.33364
406.4, 0.35886
406.6, 0.38142
406.8, 0.39441
407.0, 0.40347
407.2, 0.40834
407.4, 0.40975
407.6, 0.41181
407.8, 0.41583
408.0, 0.42118
408.2, 0.42814
408.4, 0.43571
408.6, 0.44349
408.8, 0.45053
409.0, 0.45685
409.2, 0.46228
409.4, 0.46598
409.6, 0.47062
409.8, 0.47782
410.0, 0.49381
410.2, 0.51727
410.4, 0.54997
410.6, 0.59235
410.8, 0.63822
411.0, 0.68564
411.2, 0.73549
411.4, 0.78137
411.6, 0.82071
411.8, 0.85313
412.0, 0.87676
412.2, 0.89241
412.4, 0.90028
412.6, 0.90865
412.8, 0.91414
413.0, 0.91944
413.2, 0.92711
413.4, 0.92896
413.6, 0.93009
413.8, 0.92951
414.0, 0.93133
414.2, 0.93009
414.4, 0.93045
414.6, 0.93083
414.8, 0.93087
415.0, 0.93031
415.2, 0.9296
415.4, 0.93083
415.6, 0.93031
415.8, 0.93239
416.0, 0.9336
416.2, 0.93339
416.4, 0.93536
416.6, 0.93756
416.8, 0.93868
417.0, 0.93947
417.2, 0.9414
417.4, 0.94359
417.6, 0.94355
417.8, 0.94491
418.0, 0.94566
418.2, 0.94614
418.4, 0.94749
418.6, 0.94788
418.8, 0.94679
419.0, 0.94807
419.2, 0.94727
419.4, 0.94729
419.6, 0.94922
419.8, 0.94793
420.0, 0.95108
420.2, 0.94883
420.4, 0.94793
420.6, 0.94754
420.8, 0.94638
421.0, 0.94319
421.2, 0.94361
421.4, 0.94093
421.6, 0.93961
421.8, 0.93824
422.0, 0.93889
422.2, 0.93459
422.4, 0.93481
422.6, 0.93598
422.8, 0.93733
423.0, 0.93823
423.2, 0.93823
423.4, 0.94005
423.6, 0.9425
423.8, 0.94556
424.0, 0.94807
424.2, 0.95091
424.4, 0.95321
424.6, 0.95485
424.8, 0.95721
425.0, 0.95698
425.2, 0.95844
425.4, 0.95984
425.6, 0.95857
425.8, 0.957
426.0, 0.95601
426.2, 0.95578
426.4, 0.95391
426.6, 0.95402
426.8, 0.95176
427.0, 0.95262
427.2, 0.95367
427.4, 0.9531
427.6, 0.95296
427.8, 0.95309
428.0, 0.95322
428.2, 0.95471
428.4, 0.95681
428.6, 0.95824
428.8, 0.95954
429.0, 0.96012
429.2, 0.96181
429.4, 0.96208
429.6, 0.96318
429.8, 0.9636
430.0, 0.96636
430.2, 0.96392
430.4, 0.96268
430.6, 0.96521
430.8, 0.96412
431.0, 0.96411
431.2, 0.96653
431.4, 0.96444
431.6, 0.96499
431.8, 0.96312
432.0, 0.96391
432.2, 0.96293
432.4, 0.96219
432.6, 0.96345
432.8, 0.961
433.0, 0.96358
433.2, 0.96423
433.4, 0.96349
433.6, 0.96392
433.8, 0.96438
434.0, 0.96617
434.2, 0.96586
434.4, 0.96857
434.6, 0.96997
434.8, 0.9708
435.0, 0.97012
435.2, 0.9704
435.4, 0.97131
435.6, 0.97159
435.8, 0.97054
436.0, 0.96984
436.2, 0.96969
436.4, 0.97041
436.6, 0.96859
436.8, 0.96933
437.0, 0.96986
437.2, 0.96765
437.4, 0.9704
437.6, 0.96911
437.8, 0.9689
438.0, 0.9687
438.2, 0.96821
438.4, 0.96874
438.6, 0.96863
438.8, 0.96858
439.0, 0.96985
439.2, 0.97079
439.4, 0.97312
439.6, 0.97416
439.8, 0.9729
440.0, 0.97343
440.2, 0.97477
440.4, 0.97294
440.6, 0.97305
440.8, 0.97339
441.0, 0.97428
441.2, 0.97546
441.4, 0.97481
441.6, 0.97421
441.8, 0.9733
442.0, 0.97178
442.2, 0.97335
442.4, 0.97124
442.6, 0.96932
442.8, 0.97034
443.0, 0.97004
443.2, 0.96992
443.4, 0.96792
443.6, 0.96848
443.8, 0.96946
444.0, 0.97002
444.2, 0.96922
444.4, 0.97104
444.6, 0.97049
444.8, 0.97304
445.0, 0.97323
445.2, 0.97032
445.4, 0.97227
445.6, 0.97345
445.8, 0.974
446.0, 0.97416
446.2, 0.97517
446.4, 0.97503
446.6, 0.9762
446.8, 0.97372
447.0, 0.97285
447.2, 0.97347
447.4, 0.97195
447.6, 0.97164
447.8, 0.97196
448.0, 0.97002
448.2, 0.96964
448.4, 0.96927
448.6, 0.97031
448.8, 0.97089
449.0, 0.96858
449.2, 0.96944
449.4, 0.9707
449.6, 0.97028
449.8, 0.97101
450.0, 0.97037
450.2, 0.97348
450.4, 0.97182
450.6, 0.97333
450.8, 0.97454
451.0, 0.97338
451.2, 0.97522
451.4, 0.97574
451.6, 0.97926
451.8, 0.97634
452.0, 0.97396
452.2, 0.97648
452.4, 0.97419
452.6, 0.97513
452.8, 0.9762
453.0, 0.9754
453.2, 0.97419
453.4, 0.97663
453.6, 0.97637
453.8, 0.97316
454.0, 0.97227
454.2, 0.97203
454.4, 0.97077
454.6, 0.96913
454.8, 0.97031
455.0, 0.96968
455.2, 0.96927
455.4, 0.96801
455.6, 0.96863
455.8, 0.97015
456.0, 0.96782
456.2, 0.96711
456.4, 0.9695
456.6, 0.97258
456.8, 0.97384
457.0, 0.9755
457.2, 0.97563
457.4, 0.9773
457.6, 0.97776
457.8, 0.98014
458.0, 0.979
458.2, 0.97899
458.4, 0.97849
458.6, 0.97744
458.8, 0.9785
459.0, 0.97734
459.2, 0.97557
459.4, 0.97497
459.6, 0.97481
459.8, 0.97543
460.0, 0.97607
460.2, 0.97575
460.4, 0.97474
460.6, 0.97242
460.8, 0.97246
461.0, 0.97205
461.2, 0.97102
461.4, 0.97039
461.6, 0.97077
461.8, 0.97092
462.0, 0.97262
462.2, 0.97237
462.4, 0.97047
462.6, 0.96997
462.8, 0.96976
463.0, 0.96855
463.2, 0.96996
463.4, 0.96824
463.6, 0.96891
463.8, 0.97079
464.0, 0.97026
464.2, 0.9698
464.4, 0.97006
464.6, 0.97299
464.8, 0.97466
465.0, 0.97539
465.2, 0.97492
465.4, 0.97652
465.6, 0.97514
465.8, 0.97411
466.0, 0.97338
466.2, 0.97358
466.4, 0.97284
466.6, 0.97237
466.8, 0.97276
467.0, 0.97215
467.2, 0.97104
467.4, 0.97167
467.6, 0.96948
467.8, 0.9684
468.0, 0.96854
468.2, 0.96982
468.4, 0.96826
468.6, 0.96771
468.8, 0.96897
469.0, 0.97096
469.2, 0.96989
469.4, 0.96975
469.6, 0.96895
469.8, 0.96979
470.0, 0.96875
470.2, 0.96851
470.4, 0.96838
470.6, 0.96837
470.8, 0.96842
471.0, 0.96847
471.2, 0.96904
471.4, 0.96792
471.6, 0.96587
471.8, 0.96616
472.0, 0.96687
472.2, 0.967
472.4, 0.96704
472.6, 0.96647
472.8, 0.96659
473.0, 0.96826
473.2, 0.96862
473.4, 0.96625
473.6, 0.96531
473.8, 0.96429
474.0, 0.96285
474.2, 0.96328
474.4, 0.96396
474.6, 0.96463
474.8, 0.96631
475.0, 0.96592
475.2, 0.96695
475.4, 0.96745
475.6, 0.96562
475.8, 0.96597
476.0, 0.96631
476.2, 0.96655
476.4, 0.96775
476.6, 0.96987
476.8, 0.96886
477.0, 0.96887
477.2, 0.96844
477.4, 0.96831
477.6, 0.9682
477.8, 0.97028
478.0, 0.97007
478.2, 0.97107
478.4, 0.96909
478.6, 0.9695
478.8, 0.96969
479.0, 0.96715
479.2, 0.96857
479.4, 0.96867
479.6, 0.9661
479.8, 0.9649
480.0, 0.96556
480.2, 0.96439
480.4, 0.96473
480.6, 0.96364
480.8, 0.96193
481.0, 0.9629
481.2, 0.9633
481.4, 0.95972
481.6, 0.95895
481.8, 0.95954
482.0, 0.96005
482.2, 0.95827
482.4, 0.95972
482.6, 0.95786
482.8, 0.95774
483.0, 0.95738
483.2, 0.95761
483.4, 0.95826
483.6, 0.95725
483.8, 0.95975
484.0, 0.95938
484.2, 0.9605
484.4, 0.96261
484.6, 0.96101
484.8, 0.96178
485.0, 0.96349
485.2, 0.96087
485.4, 0.96182
485.6, 0.96286
485.8, 0.96297
486.0, 0.96501
486.2, 0.96566
486.4, 0.96507
486.6, 0.96448
486.8, 0.96377
487.0, 0.96239
487.2, 0.96423
487.4, 0.96294
487.6, 0.96136
487.8, 0.96183
488.0, 0.96217
488.2, 0.9606
488.4, 0.96117
488.6, 0.95951
488.8, 0.95874
489.0, 0.95967
489.2, 0.95882
489.4, 0.95742
489.6, 0.95826
489.8, 0.95827
490.0, 0.9561
490.2, 0.9546
490.4, 0.9546
490.6, 0.95366
490.8, 0.95266
491.0, 0.95272
491.2, 0.95279
491.4, 0.9532
491.6, 0.95419
491.8, 0.9552
492.0, 0.95514
492.2, 0.9554
492.4, 0.95292
492.6, 0.95433
492.8, 0.95418
493.0, 0.95415
493.2, 0.95634
493.4, 0.95481
493.6, 0.95434
493.8, 0.9543
494.0, 0.95555
494.2, 0.9569
494.4, 0.9572
494.6, 0.95923
494.8, 0.95779
495.0, 0.95963
495.2, 0.95866
495.4, 0.95849
495.6, 0.95878
495.8, 0.95829
496.0, 0.95901
496.2, 0.96026
496.4, 0.95855
496.6, 0.95873
496.8, 0.96117
497.0, 0.96027
497.2, 0.95958
497.4, 0.9586
497.6, 0.95661
497.8, 0.95522
498.0, 0.95651
498.2, 0.957
498.4, 0.9582
498.6, 0.95902
498.8, 0.95726
499.0, 0.9557
499.2, 0.95426
499.4, 0.95584
499.6, 0.957
499.8, 0.95696
500.0, 0.95493
500.2, 0.95559
500.4, 0.95623
500.6, 0.95625
500.8, 0.95504
501.0, 0.95196
501.2, 0.9529
501.4, 0.95522
501.6, 0.95396
501.8, 0.9526
502.0, 0.95226
502.2, 0.9506
502.4, 0.95218
502.6, 0.95337
502.8, 0.95326
503.0, 0.95223
503.2, 0.95206
503.4, 0.95178
503.6, 0.95058
503.8, 0.95068
504.0, 0.95177
504.2, 0.95405
504.4, 0.95272
504.6, 0.95203
504.8, 0.95151
505.0, 0.95103
505.2, 0.95191
505.4, 0.95139
505.6, 0.95124
505.8, 0.9502
506.0, 0.9509
506.2, 0.95202
506.4, 0.95021
506.6, 0.95057
506.8, 0.95185
507.0, 0.95143
507.2, 0.95119
507.4, 0.95309
507.6, 0.95355
507.8, 0.95266
508.0, 0.95347
508.2, 0.95538
508.4, 0.9537
508.6, 0.9558
508.8, 0.95608
509.0, 0.95711
509.2, 0.9567
509.4, 0.95678
509.6, 0.95537
509.8, 0.95634
510.0, 0.95591
510.2, 0.95657
510.4, 0.95691
510.6, 0.95741
510.8, 0.95636
511.0, 0.9554
511.2, 0.95494
511.4, 0.9528
511.6, 0.95149
511.8, 0.95075
512.0, 0.95175
512.2, 0.95228
512.4, 0.94962
512.6, 0.94922
512.8, 0.94882
513.0, 0.94703
513.2, 0.94775
513.4, 0.94905
513.6, 0.94827
513.8, 0.94842
514.0, 0.94838
514.2, 0.94817
514.4, 0.94781
514.6, 0.94646
514.8, 0.94685
515.0, 0.94872
515.2, 0.9466
515.4, 0.94551
515.6, 0.94783
515.8, 0.94896
516.0, 0.94723
516.2, 0.94661
516.4, 0.94675
516.6, 0.9473
516.8, 0.94806
517.0, 0.94866
517.2, 0.94931
517.4, 0.9506
517.6, 0.95248
517.8, 0.95303
518.0, 0.95287
518.2, 0.95201
518.4, 0.95228
518.6, 0.95134
518.8, 0.95324
519.0, 0.95406
519.2, 0.95597
519.4, 0.95603
519.6, 0.9554
519.8, 0.95579
520.0, 0.95683
520.2, 0.95515
520.4, 0.95484
520.6, 0.95451
520.8, 0.95247
521.0, 0.9518
521.2, 0.95265
521.4, 0.95255
521.6, 0.95232
521.8, 0.95375
522.0, 0.95168
522.2, 0.95394
522.4, 0.95119
522.6, 0.94874
522.8, 0.94929
523.0, 0.94874
523.2, 0.94737
523.4, 0.94642
523.6, 0.94488
523.8, 0.94238
524.0, 0.94213
524.2, 0.94364
524.4, 0.94314
524.6, 0.9416
524.8, 0.94309
525.0, 0.94352
525.2, 0.94464
525.4, 0.94525
525.6, 0.94442
525.8, 0.94491
526.0, 0.94593
526.2, 0.94729
526.4, 0.94549
526.6, 0.94474
526.8, 0.94359
527.0, 0.94582
527.2, 0.94693
527.4, 0.94993
527.6, 0.95044
527.8, 0.94867
528.0, 0.94863
528.2, 0.9506
528.4, 0.95113
528.6, 0.95254
528.8, 0.95251
529.0, 0.95223
529.2, 0.95243
529.4, 0.95334
529.6, 0.9532
529.8, 0.95394
530.0, 0.95368
530.2, 0.95495
530.4, 0.95464
530.6, 0.95436
530.8, 0.95394
531.0, 0.95271
531.2, 0.95225
531.4, 0.95302
531.6, 0.95304
531.8, 0.9513
532.0, 0.95124
532.2, 0.95127
532.4, 0.95069
532.6, 0.94982
532.8, 0.94811
533.0, 0.9473
533.2, 0.9471
533.4, 0.94657
533.6, 0.9453
533.8, 0.9438
534.0, 0.94458
534.2, 0.94558
534.4, 0.94422
534.6, 0.94246
534.8, 0.94238
535.0, 0.94138
535.2, 0.94148
535.4, 0.94023
535.6, 0.94016
535.8, 0.94228
536.0, 0.94338
536.2, 0.94249
536.4, 0.94052
536.6, 0.94249
536.8, 0.94301
537.0, 0.94376
537.2, 0.94233
537.4, 0.94367
537.6, 0.94467
537.8, 0.94636
538.0, 0.9459
538.2, 0.9479
538.4, 0.94792
538.6, 0.94875
538.8, 0.9483
539.0, 0.9496
539.2, 0.95051
539.4, 0.9527
539.6, 0.95211
539.8, 0.95147
540.0, 0.9503
540.2, 0.94974
540.4, 0.94923
540.6, 0.95004
540.8, 0.94943
541.0, 0.95068
541.2, 0.95216
541.4, 0.95291
541.6, 0.95123
541.8, 0.95017
542.0, 0.95068
542.2, 0.9489
542.4, 0.95003
542.6, 0.94931
542.8, 0.9494
543.0, 0.95069
543.2, 0.95183
543.4, 0.95244
543.6, 0.951
543.8, 0.94927
544.0, 0.94849
544.2, 0.9486
544.4, 0.94981
544.6, 0.95031
544.8, 0.94686
545.0, 0.94603
545.2, 0.94481
545.4, 0.9458
545.6, 0.94658
545.8, 0.94552
546.0, 0.94661
546.2, 0.94776
546.4, 0.94615
546.6, 0.94573
546.8, 0.94472
547.0, 0.94548
547.2, 0.94511
547.4, 0.94625
547.6, 0.94566
547.8, 0.94559
548.0, 0.94718
548.2, 0.94755
548.4, 0.94692
548.6, 0.94671
548.8, 0.94568
549.0, 0.94652
549.2, 0.9469
549.4, 0.94787
549.6, 0.94641
549.8, 0.94638
550.0, 0.94646
550.2, 0.94902
550.4, 0.94852
550.6, 0.94845
550.8, 0.94719
551.0, 0.94854
551.2, 0.94706
551.4, 0.94767
551.6, 0.94791
551.8, 0.94791
552.0, 0.94871
552.2, 0.94889
552.4, 0.94868
552.6, 0.94674
552.8, 0.94532
553.0, 0.94709
553.2, 0.94626
553.4, 0.94594
553.6, 0.94793
553.8, 0.94688
554.0, 0.94659
554.2, 0.9464
554.4, 0.94755
554.6, 0.94717
554.8, 0.94876
555.0, 0.94803
555.2, 0.94659
555.4, 0.94717
555.6, 0.94871
555.8, 0.94918
556.0, 0.94986
556.2, 0.95128
556.4, 0.9513
556.6, 0.95058
556.8, 0.95051
557.0, 0.95048
557.2, 0.94949
557.4, 0.95133
557.6, 0.95091
557.8, 0.95063
558.0, 0.95266
558.2, 0.95334
558.4, 0.9529
558.6, 0.95147
558.8, 0.95214
559.0, 0.95146
559.2, 0.95176
559.4, 0.95068
559.6, 0.95339
559.8, 0.95316
560.0, 0.95177
560.2, 0.94972
560.4, 0.9516
560.6, 0.94953
560.8, 0.94994
561.0, 0.95085
561.2, 0.95121
561.4, 0.9539
561.6, 0.95234
561.8, 0.95043
562.0, 0.94843
562.2, 0.95009
562.4, 0.95007
562.6, 0.94876
562.8, 0.94898
563.0, 0.95063
563.2, 0.95114
563.4, 0.94924
563.6, 0.94952
563.8, 0.94946
564.0, 0.9498
564.2, 0.95062
564.4, 0.95096
564.6, 0.94878
564.8, 0.94953
565.0, 0.94987
565.2, 0.9497
565.4, 0.94812
565.6, 0.94694
565.8, 0.94737
566.0, 0.94674
566.2, 0.94905
566.4, 0.95033
566.6, 0.95017
566.8, 0.95074
567.0, 0.95098
567.2, 0.9519
567.4, 0.95447
567.6, 0.9533
567.8, 0.95163
568.0, 0.9533
568.2, 0.95404
568.4, 0.95267
568.6, 0.95388
568.8, 0.95468
569.0, 0.95454
569.2, 0.95367
569.4, 0.95296
569.6, 0.95182
569.8, 0.9533
570.0, 0.95353
570.2, 0.95262
570.4, 0.95327
570.6, 0.95388
570.8, 0.95538
571.0, 0.95532
571.2, 0.95337
571.4, 0.95426
571.6, 0.95313
571.8, 0.95498
572.0, 0.95305
572.2, 0.95339
572.4, 0.95412
572.6, 0.95395
572.8, 0.9525
573.0, 0.95034
573.2, 0.9496
573.4, 0.95
573.6, 0.95136
573.8, 0.95088
574.0, 0.95185
574.2, 0.95089
574.4, 0.95078
574.6, 0.9494
574.8, 0.94789
575.0, 0.94727
575.2, 0.94685
575.4, 0.94827
575.6, 0.94733
575.8, 0.94406
576.0, 0.94549
576.2, 0.94507
576.4, 0.94471
576.6, 0.9453
576.8, 0.94479
577.0, 0.94289
577.2, 0.9433
577.4, 0.94416
577.6, 0.94502
577.8, 0.94469
578.0, 0.94578
578.2, 0.94642
578.4, 0.94629
578.6, 0.94562
578.8, 0.94706
579.0, 0.94632
579.2, 0.94614
579.4, 0.94832
579.6, 0.94972
579.8, 0.9521
580.0, 0.95297
580.2, 0.95516
580.4, 0.95389
580.6, 0.95523
580.8, 0.95376
581.0, 0.9525
581.2, 0.95324
581.4, 0.95312
581.6, 0.95443
581.8, 0.95535
582.0, 0.95719
582.2, 0.95838
582.4, 0.957
582.6, 0.95647
582.8, 0.95775
583.0, 0.95797
583.2, 0.9599
583.4, 0.96131
583.6, 0.95909
583.8, 0.95829
584.0, 0.95797
584.2, 0.9573
584.4, 0.95909
584.6, 0.95952
584.8, 0.95736
585.0, 0.95767
585.2, 0.95834
585.4, 0.95575
585.6, 0.95568
585.8, 0.9562
586.0, 0.95608
586.2, 0.95499
586.4, 0.95632
586.6, 0.95671
586.8, 0.9554
587.0, 0.95444
587.2, 0.9547
587.4, 0.95466
587.6, 0.95372
587.8, 0.95548
588.0, 0.956
588.2, 0.95309
588.4, 0.95222
588.6, 0.95006
588.8, 0.95153
589.0, 0.95332
589.2, 0.95172
589.4, 0.95083
589.6, 0.95056
589.8, 0.95145
590.0, 0.95212
590.2, 0.95131
590.4, 0.94991
590.6, 0.94981
590.8, 0.94894
591.0, 0.95007
591.2, 0.95182
591.4, 0.95222
591.6, 0.9543
591.8, 0.95336
592.0, 0.95137
592.2, 0.95105
592.4, 0.95164
592.6, 0.95337
592.8, 0.95432
593.0, 0.95333
593.2, 0.95351
593.4, 0.95248
593.6, 0.95196
593.8, 0.95366
594.0, 0.9536
594.2, 0.95377
594.4, 0.95407
594.6, 0.95198
594.8, 0.95376
595.0, 0.9547
595.2, 0.95719
595.4, 0.95893
595.6, 0.95782
595.8, 0.95784
596.0, 0.95658
596.2, 0.95641
596.4, 0.95531
596.6, 0.9548
596.8, 0.95558
597.0, 0.95667
597.2, 0.95519
597.4, 0.95534
597.6, 0.95652
597.8, 0.95668
598.0, 0.95559
598.2, 0.95551
598.4, 0.95632
598.6, 0.95765
598.8, 0.95824
599.0, 0.95649
599.2, 0.9558
599.4, 0.95603
599.6, 0.95711
599.8, 0.95712
600.0, 0.95349
600.2, 0.95243
600.4, 0.95226
600.6, 0.95262
600.8, 0.95377
601.0, 0.95362
601.2, 0.95522
601.4, 0.95446
601.6, 0.95479
601.8, 0.95548
602.0, 0.9542
602.2, 0.95548
602.4, 0.95565
602.6, 0.95498
602.8, 0.95493
603.0, 0.95473
603.2, 0.95677
603.4, 0.95596
603.6, 0.95535
603.8, 0.95402
604.0, 0.95268
604.2, 0.95319
604.4, 0.95347
604.6, 0.95455
604.8, 0.95505
605.0, 0.95403
605.2, 0.95489
605.4, 0.95537
605.6, 0.95675
605.8, 0.95817
606.0, 0.95868
606.2, 0.95754
606.4, 0.95595
606.6, 0.95342
606.8, 0.9546
607.0, 0.95459
607.2, 0.95708
607.4, 0.95737
607.6, 0.95664
607.8, 0.95835
608.0, 0.95842
608.2, 0.95754
608.4, 0.95755
608.6, 0.95898
608.8, 0.95652
609.0, 0.95701
609.2, 0.95832
609.4, 0.95902
609.6, 0.95883
609.8, 0.95703
610.0, 0.95988
610.2, 0.9604
610.4, 0.95875
610.6, 0.95806
610.8, 0.95684
611.0, 0.95924
611.2, 0.95983
611.4, 0.96023
611.6, 0.95867
611.8, 0.95757
612.0, 0.95661
612.2, 0.95689
612.4, 0.95657
612.6, 0.95729
612.8, 0.95929
613.0, 0.95713
613.2, 0.95693
613.4, 0.95634
613.6, 0.95808
613.8, 0.95954
614.0, 0.95999
614.2, 0.95885
614.4, 0.95753
614.6, 0.95604
614.8, 0.95709
615.0, 0.95754
615.2, 0.95855
615.4, 0.95601
615.6, 0.95592
615.8, 0.95654
616.0, 0.95729
616.2, 0.9597
616.4, 0.95957
616.6, 0.95791
616.8, 0.95834
617.0, 0.96001
617.2, 0.96077
617.4, 0.95863
617.6, 0.95822
617.8, 0.95692
618.0, 0.95822
618.2, 0.95847
618.4, 0.95613
618.6, 0.95684
618.8, 0.95971
619.0, 0.95891
619.2, 0.95848
619.4, 0.95926
619.6, 0.96008
619.8, 0.95903
620.0, 0.95889
620.2, 0.95832
620.4, 0.95885
620.6, 0.9578
620.8, 0.95915
621.0, 0.95849
621.2, 0.95956
621.4, 0.96002
621.6, 0.95972
621.8, 0.96081
622.0, 0.96183
622.2, 0.95905
622.4, 0.95882
622.6, 0.95839
622.8, 0.95822
623.0, 0.95907
623.2, 0.96034
623.4, 0.96022
623.6, 0.96174
623.8, 0.96219
624.0, 0.96093
624.2, 0.96122
624.4, 0.96031
624.6, 0.96001
624.8, 0.95968
625.0, 0.95919
625.2, 0.95884
625.4, 0.95945
625.6, 0.96118
625.8, 0.95876
626.0, 0.9575
626.2, 0.9575
626.4, 0.9589
626.6, 0.95891
626.8, 0.96172
627.0, 0.95985
627.2, 0.9588
627.4, 0.95796
627.6, 0.95805
627.8, 0.95923
628.0, 0.95927
628.2, 0.95771
628.4, 0.95935
628.6, 0.95989
628.8, 0.96058
629.0, 0.95851
629.2, 0.95684
629.4, 0.95705
629.6, 0.95849
629.8, 0.95834
630.0, 0.95679
630.2, 0.95897
630.4, 0.95836
630.6, 0.95959
630.8, 0.95872
631.0, 0.9581
631.2, 0.96031
631.4, 0.95956
631.6, 0.95934
631.8, 0.96067
632.0, 0.96193
632.2, 0.96236
632.4, 0.96055
632.6, 0.95982
632.8, 0.95926
633.0, 0.95992
633.2, 0.96022
633.4, 0.96188
633.6, 0.96242
633.8, 0.96193
634.0, 0.96066
634.2, 0.96176
634.4, 0.96275
634.6, 0.96176
634.8, 0.96332
635.0, 0.96436
635.2, 0.96505
635.4, 0.96491
635.6, 0.96507
635.8, 0.96347
636.0, 0.96208
636.2, 0.9621
636.4, 0.96316
636.6, 0.96308
636.8, 0.96187
637.0, 0.96325
637.2, 0.96212
637.4, 0.96086
637.6, 0.95969
637.8, 0.96232
638.0, 0.96445
638.2, 0.96223
638.4, 0.96158
638.6, 0.9615
638.8, 0.96034
639.0, 0.96051
639.2, 0.95902
639.4, 0.95953
639.6, 0.95964
639.8, 0.95972
640.0, 0.95932
640.2, 0.95892
640.4, 0.96001
640.6, 0.96073
640.8, 0.96246
641.0, 0.96222
641.2, 0.96078
641.4, 0.96037
641.6, 0.96038
641.8, 0.95806
642.0, 0.95888
642.2, 0.96054
642.4, 0.96337
642.6, 0.96481
642.8, 0.96255
643.0, 0.9613
643.2, 0.96371
643.4, 0.9639
643.6, 0.96314
643.8, 0.96243
644.0, 0.96173
644.2, 0.96063
644.4, 0.96163
644.6, 0.96307
644.8, 0.96611
645.0, 0.96678
645.2, 0.96843
645.4, 0.96615
645.6, 0.96489
645.8, 0.96535
646.0, 0.96622
646.2, 0.96709
646.4, 0.96778
646.6, 0.96628
646.8, 0.96682
647.0, 0.96566
647.2, 0.96334
647.4, 0.96417
647.6, 0.965
647.8, 0.9661
648.0, 0.96873
648.2, 0.96769
648.4, 0.96782
648.6, 0.9646
648.8, 0.96449
649.0, 0.96441
649.2, 0.96593
649.4, 0.96664
649.6, 0.96705
649.8, 0.96882
650.0, 0.96685
650.2, 0.96503
650.4, 0.96717
650.6, 0.96839
650.8, 0.96653
651.0, 0.9689
651.2, 0.96924
651.4, 0.96929
651.6, 0.97059
651.8, 0.97142
652.0, 0.96936
652.2, 0.96798
652.4, 0.96943
652.6, 0.96817
652.8, 0.96763
653.0, 0.96532
653.2, 0.9645
653.4, 0.96456
653.6, 0.96409
653.8, 0.96391
654.0, 0.96731
654.2, 0.96715
654.4, 0.96697
654.6, 0.9672
654.8, 0.96713
655.0, 0.96676
655.2, 0.96658
655.4, 0.96515
655.6, 0.96448
655.8, 0.96581
656.0, 0.96467
656.2, 0.96479
656.4, 0.96449
656.6, 0.96414
656.8, 0.9632
657.0, 0.96421
657.2, 0.96363
657.4, 0.96339
657.6, 0.96463
657.8, 0.9639
658.0, 0.96272
658.2, 0.96248
658.4, 0.96612
658.6, 0.96634
658.8, 0.96716
659.0, 0.96903
659.2, 0.96804
659.4, 0.96754
659.6, 0.96589
659.8, 0.96659
660.0, 0.9679
660.2, 0.96717
660.4, 0.96393
660.6, 0.96386
660.8, 0.96605
661.0, 0.96583
661.2, 0.96657
661.4, 0.96482
661.6, 0.96392
661.8, 0.96555
662.0, 0.96553
662.2, 0.96559
662.4, 0.96598
662.6, 0.96504
662.8, 0.96619
663.0, 0.9645
663.2, 0.96686
663.4, 0.96779
663.6, 0.96645
663.8, 0.96892
664.0, 0.96786
664.2, 0.96739
664.4, 0.96833
664.6, 0.96841
664.8, 0.97109
665.0, 0.97202
665.2, 0.97207
665.4, 0.97168
665.6, 0.97313
665.8, 0.97162
666.0, 0.97142
666.2, 0.96847
666.4, 0.9661
666.6, 0.96759
666.8, 0.96768
667.0, 0.96855
667.2, 0.96865
667.4, 0.96905
667.6, 0.97003
667.8, 0.96955
668.0, 0.96833
668.2, 0.97188
668.4, 0.97299
668.6, 0.97165
668.8, 0.97228
669.0, 0.97177
669.2, 0.97435
669.4, 0.97286
669.6, 0.97502
669.8, 0.97621
670.0, 0.97539
670.2, 0.97479
670.4, 0.97199
670.6, 0.97229
670.8, 0.97094
671.0, 0.97146
671.2, 0.96955
671.4, 0.96755
671.6, 0.96906
671.8, 0.96755
672.0, 0.96675
672.2, 0.96741
672.4, 0.96548
672.6, 0.96555
672.8, 0.9679
673.0, 0.96668
673.2, 0.96567
673.4, 0.96685
673.6, 0.96624
673.8, 0.96594
674.0, 0.96615
674.2, 0.96747
674.4, 0.9667
674.6, 0.96685
674.8, 0.96646
675.0, 0.96816
675.2, 0.96634
675.4, 0.96605
675.6, 0.96657
675.8, 0.96717
676.0, 0.96693
676.2, 0.96726
676.4, 0.96629
676.6, 0.96795
676.8, 0.96899
677.0, 0.96999
677.2, 0.96706
677.4, 0.96575
677.6, 0.96589
677.8, 0.96532
678.0, 0.96492
678.2, 0.96346
678.4, 0.96365
678.6, 0.96382
678.8, 0.96454
679.0, 0.96679
679.2, 0.96558
679.4, 0.96212
679.6, 0.96276
679.8, 0.9629
680.0, 0.96223
680.2, 0.96285
680.4, 0.96295
680.6, 0.96351
680.8, 0.96486
681.0, 0.96564
681.2, 0.96384
681.4, 0.96717
681.6, 0.96766
681.8, 0.96725
682.0, 0.9682
682.2, 0.96878
682.4, 0.96823
682.6, 0.967
682.8, 0.9665
683.0, 0.96485
683.2, 0.96462
683.4, 0.96606
683.6, 0.96706
683.8, 0.96982
684.0, 0.96924
684.2, 0.96751
684.4, 0.96588
684.6, 0.96367
684.8, 0.96707
685.0, 0.96911
685.2, 0.96672
685.4, 0.96813
685.6, 0.96911
685.8, 0.96831
686.0, 0.9685
686.2, 0.96871
686.4, 0.96921
686.6, 0.96864
686.8, 0.96789
687.0, 0.96842
687.2, 0.96981
687.4, 0.96879
687.6, 0.96807
687.8, 0.96974
688.0, 0.96947
688.2, 0.96566
688.4, 0.96557
688.6, 0.96946
688.8, 0.96953
689.0, 0.96915
689.2, 0.96721
689.4, 0.96606
689.6, 0.96751
689.8, 0.9679
690.0, 0.96792
690.2, 0.96641
690.4, 0.96733
690.6, 0.96526
690.8, 0.96567
691.0, 0.9656
691.2, 0.96497
691.4, 0.96635
691.6, 0.96547
691.8, 0.96346
692.0, 0.96132
692.2, 0.96128
692.4, 0.96417
692.6, 0.96656
692.8, 0.96835
693.0, 0.96769
693.2, 0.9665
693.4, 0.9641
693.6, 0.96587
693.8, 0.96738
694.0, 0.96844
694.2, 0.96861
694.4, 0.96738
694.6, 0.96543
694.8, 0.96764
695.0, 0.96595
695.2, 0.96699
695.4, 0.96961
695.6, 0.96806
695.8, 0.96551
696.0, 0.96638
696.2, 0.96433
696.4, 0.96446
696.6, 0.96457
696.8, 0.96575
697.0, 0.96711
697.2, 0.9672
697.4, 0.96784
697.6, 0.96614
697.8, 0.96709
698.0, 0.96664
698.2, 0.96837
698.4, 0.96854
698.6, 0.9687
698.8, 0.96669
699.0, 0.96524
699.2, 0.96456
699.4, 0.96457
699.6, 0.96492
699.8, 0.9659
700.0, 0.96597
700.2, 0.96671
700.4, 0.96629
700.6, 0.9653
700.8, 0.96486
701.0, 0.96427
701.2, 0.96457
701.4, 0.9661
701.6, 0.96799
701.8, 0.9669
702.0, 0.96563
702.2, 0.96581
702.4, 0.96715
702.6, 0.96699
702.8, 0.96525
703.0, 0.96672
703.2, 0.96559
703.4, 0.96508
703.6, 0.96516
703.8, 0.96542
704.0, 0.96481
704.2, 0.96105
704.4, 0.96257
704.6, 0.96293
704.8, 0.9645
705.0, 0.96368
705.2, 0.96371
705.4, 0.9665
705.6, 0.96673
705.8, 0.96449
706.0, 0.96759
706.2, 0.96713
706.4, 0.96446
706.6, 0.96565
706.8, 0.96845
707.0, 0.96877
707.2, 0.96781
707.4, 0.96792
707.6, 0.96912
707.8, 0.97012
708.0, 0.97051
708.2, 0.9677
708.4, 0.96486
708.6, 0.96366
708.8, 0.96361
709.0, 0.96647
709.2, 0.96588
709.4, 0.96804
709.6, 0.96907
709.8, 0.96615
710.0, 0.96682
710.2, 0.96771
710.4, 0.96806
710.6, 0.96531
710.8, 0.96514
711.0, 0.96743
711.2, 0.96863
711.4, 0.97113
711.6, 0.97015
711.8, 0.96916
712.0, 0.96778
712.2, 0.96923
712.4, 0.96981
712.6, 0.9683
712.8, 0.97067
713.0, 0.97113
713.2, 0.96957
713.4, 0.96929
713.6, 0.97108
713.8, 0.97101
714.0, 0.97164
714.2, 0.96941
714.4, 0.96977
714.6, 0.97088
714.8, 0.97013
715.0, 0.97101
715.2, 0.97039
715.4, 0.96918
715.6, 0.9682
715.8, 0.96886
716.0, 0.96935
716.2, 0.96832
716.4, 0.97018
716.6, 0.97026
716.8, 0.96974
717.0, 0.97013
717.2, 0.97132
717.4, 0.97227
717.6, 0.97149
717.8, 0.96974
718.0, 0.9692
718.2, 0.97011
718.4, 0.97068
718.6, 0.96791
718.8, 0.96715
719.0, 0.97137
719.2, 0.97228
719.4, 0.96794
719.6, 0.96619
719.8, 0.96763
720.0, 0.96911
720.2, 0.96878
720.4, 0.96876
720.6, 0.96803
720.8, 0.96912
721.0, 0.96979
721.2, 0.96944
721.4, 0.96726
721.6, 0.96696
721.8, 0.9648
722.0, 0.96672
722.2, 0.96755
722.4, 0.96383
722.6, 0.96399
722.8, 0.96442
723.0, 0.96745
723.2, 0.96802
723.4, 0.96838
723.6, 0.96967
723.8, 0.96828
724.0, 0.96494
724.2, 0.96222
724.4, 0.96488
724.6, 0.96457
724.8, 0.96604
725.0, 0.96599
725.2, 0.9667
725.4, 0.96518
725.6, 0.96552
725.8, 0.96598
726.0, 0.96754
726.2, 0.96888
726.4, 0.96793
726.6, 0.96569
726.8, 0.96617
727.0, 0.96779
727.2, 0.96836
727.4, 0.969
727.6, 0.96736
727.8, 0.96527
728.0, 0.9627
728.2, 0.96341
728.4, 0.96547
728.6, 0.9696
728.8, 0.96903
729.0, 0.96765
729.2, 0.96588
729.4, 0.96308
729.6, 0.96339
729.8, 0.96335
730.0, 0.96694
730.2, 0.96743
730.4, 0.96886
730.6, 0.97099
730.8, 0.96939
731.0, 0.96985
731.2, 0.96568
731.4, 0.9625
731.6, 0.96422
731.8, 0.96773
732.0, 0.96889
732.2, 0.96854
732.4, 0.96868
732.6, 0.96823
732.8, 0.96944
733.0, 0.97106
733.2, 0.96903
733.4, 0.96998
733.6, 0.97138
733.8, 0.96933
734.0, 0.96945
734.2, 0.96788
734.4, 0.96689
734.6, 0.97012
734.8, 0.97245
735.0, 0.97487
735.2, 0.97327
735.4, 0.97103
735.6, 0.96885
735.8, 0.97149
736.0, 0.97195
736.2, 0.9709
736.4, 0.96881
736.6, 0.96951
736.8, 0.97049
737.0, 0.96936
737.2, 0.97
737.4, 0.96999
737.6, 0.96966
737.8, 0.9696
738.0, 0.96835
738.2, 0.96789
738.4, 0.96807
738.6, 0.97
738.8, 0.97077
739.0, 0.97124
739.2, 0.9718
739.4, 0.97291
739.6, 0.97346
739.8, 0.9761
740.0, 0.97547
740.2, 0.97358
740.4, 0.97324
740.6, 0.97168
740.8, 0.97279
741.0, 0.9749
741.2, 0.97194
741.4, 0.9697
741.6, 0.97029
741.8, 0.97095
742.0, 0.96915
742.2, 0.96911
742.4, 0.97045
742.6, 0.96964
742.8, 0.97028
743.0, 0.97004
743.2, 0.96994
743.4, 0.97253
743.6, 0.97116
743.8, 0.97033
744.0, 0.97146
744.2, 0.97127
744.4, 0.97106
744.6, 0.96985
744.8, 0.96945
745.0, 0.96649
745.2, 0.96592
745.4, 0.96602
745.6, 0.9652
745.8, 0.96619
746.0, 0.96552
746.2, 0.96662
746.4, 0.96657
746.6, 0.96752
746.8, 0.96985
747.0, 0.96914
747.2, 0.97184
747.4, 0.9714
747.6, 0.96974
747.8, 0.96848
748.0, 0.9687
748.2, 0.97046
748.4, 0.96894
748.6, 0.96908
748.8, 0.96919
749.0, 0.96913
749.2, 0.96909
749.4, 0.97052
749.6, 0.97136
749.8, 0.97265
750.0, 0.97174
750.2, 0.9712
750.4, 0.97145
750.6, 0.97157
750.8, 0.97075
751.0, 0.96909
751.2, 0.96805
751.4, 0.96814
751.6, 0.9664
751.8, 0.96682
752.0, 0.96498
752.2, 0.9662
752.4, 0.96691
752.6, 0.96732
752.8, 0.96923
753.0, 0.97003
753.2, 0.97091
753.4, 0.97009
753.6, 0.97017
753.8, 0.97104
754.0, 0.97052
754.2, 0.97103
754.4, 0.9724
754.6, 0.97172
754.8, 0.97298
755.0, 0.97279
755.2, 0.97193
755.4, 0.97363
755.6, 0.97513
755.8, 0.97464
756.0, 0.97561
756.2, 0.97489
756.4, 0.97396
756.6, 0.9757
756.8, 0.97732
757.0, 0.97824
757.2, 0.97816
757.4, 0.97958
757.6, 0.98046
757.8, 0.9793
758.0, 0.97812
758.2, 0.97445
758.4, 0.97484
758.6, 0.97379
758.8, 0.97453
759.0, 0.97287
759.2, 0.97466
759.4, 0.97264
759.6, 0.9721
759.8, 0.97483
760.0, 0.97659
760.2, 0.97634
760.4, 0.97819
760.6, 0.9766
760.8, 0.97655
761.0, 0.97561
761.2, 0.9743
761.4, 0.97216
761.6, 0.97161
761.8, 0.97154
762.0, 0.97194
762.2, 0.97334
762.4, 0.97277
762.6, 0.97277
762.8, 0.97238
763.0, 0.97299
763.2, 0.97193
763.4, 0.97374
763.6, 0.97492
763.8, 0.97635
764.0, 0.97473
764.2, 0.97432
764.4, 0.97427
764.6, 0.97431
764.8, 0.97278
765.0, 0.97314
765.2, 0.97137
765.4, 0.97185
765.6, 0.97289
765.8, 0.97289
766.0, 0.97249
766.2, 0.97426
766.4, 0.97384
766.6, 0.97384
766.8, 0.9753
767.0, 0.97756
767.2, 0.9756
767.4, 0.97373
767.6, 0.97426
767.8, 0.97423
768.0, 0.9764
768.2, 0.97611
768.4, 0.97616
768.6, 0.97352
768.8, 0.971
769.0, 0.97005
769.2, 0.97139
769.4, 0.97485
769.6, 0.97526
769.8, 0.97453
770.0, 0.97662
770.2, 0.97685
770.4, 0.9751
770.6, 0.97341
770.8, 0.9727
771.0, 0.97393
771.2, 0.97421
771.4, 0.9755
771.6, 0.97483
771.8, 0.97492
772.0, 0.97464
772.2, 0.97586
772.4, 0.97523
772.6, 0.97379
772.8, 0.97289
773.0, 0.97096
773.2, 0.97101
773.4, 0.97363
773.6, 0.97467
773.8, 0.97308
774.0, 0.9741
774.2, 0.97478
774.4, 0.97298
774.6, 0.97134
774.8, 0.97017
775.0, 0.9706
775.2, 0.9729
775.4, 0.97301
775.6, 0.97371
775.8, 0.97436
776.0, 0.97629
776.2, 0.97639
776.4, 0.97388
776.6, 0.97252
776.8, 0.97279
777.0, 0.97347
777.2, 0.97399
777.4, 0.97295
777.6, 0.97029
777.8, 0.96975
778.0, 0.97019
778.2, 0.96964
778.4, 0.9707
778.6, 0.97153
778.8, 0.97307
779.0, 0.97098
779.2, 0.96978
779.4, 0.97104
779.6, 0.97378
779.8, 0.97387
780.0, 0.97504
780.2, 0.97443
780.4, 0.97253
780.6, 0.97203
780.8, 0.97445
781.0, 0.97318
781.2, 0.97271
781.4, 0.97194
781.6, 0.97177
781.8, 0.97312
782.0, 0.97392
782.2, 0.97376
782.4, 0.97202
782.6, 0.97348
782.8, 0.97672
783.0, 0.9768
783.2, 0.97632
783.4, 0.97891
783.6, 0.97979
783.8, 0.98175
784.0, 0.98002
784.2, 0.98145
784.4, 0.98175
784.6, 0.97862
784.8, 0.97722
785.0, 0.97862
785.2, 0.97996
785.4, 0.97877
785.6, 0.97744
785.8, 0.97833
786.0, 0.9797
786.2, 0.97767
786.4, 0.97621
786.6, 0.97772
786.8, 0.97524
787.0, 0.97229
787.2, 0.97252
787.4, 0.97176
787.6, 0.97529
787.8, 0.9743
788.0, 0.97452
788.2, 0.9755
788.4, 0.97549
788.6, 0.97836
788.8, 0.97914
789.0, 0.98029
789.2, 0.98
789.4, 0.97722
789.6, 0.97758
789.8, 0.98039
790.0, 0.98187
790.2, 0.98142
790.4, 0.97721
790.6, 0.97506
790.8, 0.97335
791.0, 0.97508
791.2, 0.97703
791.4, 0.97609
791.6, 0.97326
791.8, 0.97458
792.0, 0.97498
792.2, 0.97459
792.4, 0.97735
792.6, 0.97997
792.8, 0.97934
793.0, 0.98065
793.2, 0.98038
793.4, 0.97933
793.6, 0.97767
793.8, 0.97651
794.0, 0.97824
794.2, 0.97984
794.4, 0.98012
794.6, 0.98085
794.8, 0.9805
795.0, 0.9775
795.2, 0.97557
795.4, 0.97544
795.6, 0.97299
795.8, 0.9764
796.0, 0.97806
796.2, 0.97736
796.4, 0.97522
796.6, 0.97813
796.8, 0.98007
797.0, 0.97842
797.2, 0.97479
797.4, 0.9748
797.6, 0.97609
797.8, 0.97691
798.0, 0.97687
798.2, 0.97741
798.4, 0.97842
798.6, 0.97746
798.8, 0.97608
799.0, 0.97567
799.2, 0.97718
799.4, 0.97564
799.6, 0.97596
799.8, 0.97638
800.0, 0.97514
800.2, 0.97615
800.4, 0.97655
800.6, 0.97599
800.8, 0.97617
801.0, 0.97568
801.2, 0.97459
801.4, 0.97374
801.6, 0.97163
801.8, 0.96918
802.0, 0.96785
802.2, 0.96749
802.4, 0.96589
802.6, 0.96743
802.8, 0.96855
803.0, 0.96948
803.2, 0.97035
803.4, 0.97155
803.6, 0.97353
803.8, 0.9738
804.0, 0.97437
804.2, 0.97623
804.4, 0.97603
804.6, 0.97523
804.8, 0.97541
805.0, 0.97683
805.2, 0.97664
805.4, 0.9724
805.6, 0.97181
805.8, 0.973
806.0, 0.97413
806.2, 0.97384
806.4, 0.97506
806.6, 0.97622
806.8, 0.97439
807.0, 0.97439
807.2, 0.97443
807.4, 0.97616
807.6, 0.97513
807.8, 0.97544
808.0, 0.97738
808.2, 0.9775
808.4, 0.97496
808.6, 0.97297
808.8, 0.97259
809.0, 0.97466
809.2, 0.97534
809.4, 0.97492
809.6, 0.9747
809.8, 0.97506
810.0, 0.97822
810.2, 0.97591
810.4, 0.97415
810.6, 0.97476
810.8, 0.9748
811.0, 0.97469
811.2, 0.97313
811.4, 0.97485
811.6, 0.97573
811.8, 0.97569
812.0, 0.97563
812.2, 0.9769
812.4, 0.97745
812.6, 0.97762
812.8, 0.97875
813.0, 0.98169
813.2, 0.98286
813.4, 0.98486
813.6, 0.98625
813.8, 0.98637
814.0, 0.98425
814.2, 0.9841
814.4, 0.98453
814.6, 0.98396
814.8, 0.98291
815.0, 0.98387
815.2, 0.98515
815.4, 0.98434
815.6, 0.98351
815.8, 0.98235
816.0, 0.98281
816.2, 0.98285
816.4, 0.98455
816.6, 0.98556
816.8, 0.98575
817.0, 0.98735
817.2, 0.98745
817.4, 0.98831
817.6, 0.98823
817.8, 0.98969
818.0, 0.98898
818.2, 0.98718
818.4, 0.98415
818.6, 0.98663
818.8, 0.98557
819.0, 0.98577
819.2, 0.98837
819.4, 0.98774
819.6, 0.98521
819.8, 0.98369
820.0, 0.9835
820.2, 0.98347
820.4, 0.98212
820.6, 0.9854
820.8, 0.98705
821.0, 0.9829
821.2, 0.98211
821.4, 0.98226
821.6, 0.98197
821.8, 0.98049
822.0, 0.98059
822.2, 0.97995
822.4, 0.98309
822.6, 0.98503
822.8, 0.98643
823.0, 0.98803
823.2, 0.98568
823.4, 0.98502
823.6, 0.98424
823.8, 0.98285
824.0, 0.98151
824.2, 0.98306
824.4, 0.98589
824.6, 0.98434
824.8, 0.98225
825.0, 0.98148
825.2, 0.98134
825.4, 0.98279
825.6, 0.98095
825.8, 0.98068
826.0, 0.97935
826.2, 0.97787
826.4, 0.97691
826.6, 0.97579
826.8, 0.97489
827.0, 0.97723
827.2, 0.97943
827.4, 0.98113
827.6, 0.9813
827.8, 0.98008
828.0, 0.97793
828.2, 0.9754
828.4, 0.97346
828.6, 0.97575
828.8, 0.97545
829.0, 0.97527
829.2, 0.97667
829.4, 0.97643
829.6, 0.97568
829.8, 0.9745
830.0, 0.97459
830.2, 0.97253
830.4, 0.97037
830.6, 0.96945
830.8, 0.9686
831.0, 0.97007
831.2, 0.96926
831.4, 0.9723
831.6, 0.97309
831.8, 0.9738
832.0, 0.97188
832.2, 0.96905
832.4, 0.96702
832.6, 0.96658
832.8, 0.96687
833.0, 0.96913
833.2, 0.97179
833.4, 0.97218
833.6, 0.97197
833.8, 0.97136
834.0, 0.97212
834.2, 0.97384
834.4, 0.97442
834.6, 0.97703
834.8, 0.97855
835.0, 0.97863
835.2, 0.97855
835.4, 0.97837
835.6, 0.97697
835.8, 0.97776
836.0, 0.97617
836.2, 0.97839
836.4, 0.98029
836.6, 0.97813
836.8, 0.97759
837.0, 0.97886
837.2, 0.97826
837.4, 0.97789
837.6, 0.97771
837.8, 0.97744
838.0, 0.97624
838.2, 0.97659
838.4, 0.97868
838.6, 0.98105
838.8, 0.97915
839.0, 0.97945
839.2, 0.98065
839.4, 0.98171
839.6, 0.97941
839.8, 0.97758
840.0, 0.97901
840.2, 0.98189
840.4, 0.98457
840.6, 0.98344
840.8, 0.98315
841.0, 0.9851
841.2, 0.98664
841.4, 0.98673
841.6, 0.98647
841.8, 0.98705
842.0, 0.98842
842.2, 0.98699
842.4, 0.9871
842.6, 0.98797
842.8, 0.98646
843.0, 0.98871
843.2, 0.98949
843.4, 0.99172
843.6, 0.9934
843.8, 0.99166
844.0, 0.98758
844.2, 0.98989
844.4, 0.99142
844.6, 0.99125
844.8, 0.99208
845.0, 0.99497
845.2, 0.99686
845.4, 0.99828
845.6, 0.99635
845.8, 0.99213
846.0, 0.98993
846.2, 0.98956
846.4, 0.9896
846.6, 0.98945
846.8, 0.98888
847.0, 0.99101
847.2, 0.99563
847.4, 0.99536
847.6, 0.99587
847.8, 0.99408
848.0, 0.99106
848.2, 0.98759
848.4, 0.9867
848.6, 0.99002
848.8, 0.99265
849.0, 0.98836
849.2, 0.98762
849.4, 0.98671
849.6, 0.98835
849.8, 0.98719
850.0, 0.98776
850.2, 0.98927
850.4, 0.98946
850.6, 0.98982
850.8, 0.99064
851.0, 0.98896
851.2, 0.98721
851.4, 0.98425
851.6, 0.9845
851.8, 0.98543
852.0, 0.98588
852.2, 0.98828
852.4, 0.98844
852.6, 0.98538
852.8, 0.98516
853.0, 0.98519
853.2, 0.98418
853.4, 0.98418
853.6, 0.98132
853.8, 0.98141
854.0, 0.98259
854.2, 0.98217
854.4, 0.98172
854.6, 0.98313
854.8, 0.98452
855.0, 0.98618
855.2, 0.98736
855.4, 0.98582
855.6, 0.98414
855.8, 0.98272
856.0, 0.98311
856.2, 0.98228
856.4, 0.98099
856.6, 0.98348
856.8, 0.98195
857.0, 0.97877
857.2, 0.97857
857.4, 0.97958
857.6, 0.97971
857.8, 0.97699
858.0, 0.97578
858.2, 0.97588
858.4, 0.97518
858.6, 0.97408
858.8, 0.97522
859.0, 0.9769
859.2, 0.9776
859.4, 0.97491
859.6, 0.97383
859.8, 0.97663
860.0, 0.97798
860.2, 0.97902
860.4, 0.97931
860.6, 0.97944
860.8, 0.97765
861.0, 0.97734
861.2, 0.97559
861.4, 0.97411
861.6, 0.97411
861.8, 0.97591
862.0, 0.97686
862.2, 0.97616
862.4, 0.97501
862.6, 0.97442
862.8, 0.9733
863.0, 0.97164
863.2, 0.97083
863.4, 0.97084
863.6, 0.97381
863.8, 0.97308
864.0, 0.97319
864.2, 0.97476
864.4, 0.97621
864.6, 0.97509
864.8, 0.97417
865.0, 0.97435
865.2, 0.97503
865.4, 0.97485
865.6, 0.97697
865.8, 0.97804
866.0, 0.97822
866.2, 0.97767
866.4, 0.97557
866.6, 0.9753
866.8, 0.9761
867.0, 0.97728
867.2, 0.97668
867.4, 0.97569
867.6, 0.97527
867.8, 0.97638
868.0, 0.97605
868.2, 0.97635
868.4, 0.98103
868.6, 0.98153
868.8, 0.98067
869.0, 0.98281
869.2, 0.98378
869.4, 0.98385
869.6, 0.98325
869.8, 0.9834
870.0, 0.98632
870.2, 0.9902
870.4, 0.98967
870.6, 0.98723
870.8, 0.98956
871.0, 0.98824
871.2, 0.99092
871.4, 0.99172
871.6, 0.99078
871.8, 0.99231
872.0, 0.99265
872.2, 0.9915
872.4, 0.99244
872.6, 0.99226
872.8, 0.99085
873.0, 0.98861
873.2, 0.98579
873.4, 0.98829
873.6, 0.99032
873.8, 0.99146
874.0, 0.99339
874.2, 0.9942
874.4, 0.99528
874.6, 0.99553
874.8, 0.99238
875.0, 0.99211
875.2, 0.99361
875.4, 0.99414
875.6, 0.99363
875.8, 0.99383
876.0, 0.99589
876.2, 0.99663
876.4, 0.99771
876.6, 0.99981
876.8, 0.99738
877.0, 0.99783
877.2, 0.99822
877.4, 0.99777
877.6, 0.99752
877.8, 0.99521
878.0, 0.99505
878.2, 0.99338
878.4, 0.99297
878.6, 0.99151
878.8, 0.99107
879.0, 0.98944
879.2, 0.99129
879.4, 0.99389
879.6, 0.99388
879.8, 0.99122
880.0, 0.99068
880.2, 0.99035
880.4, 0.99125
880.6, 0.98982
880.8, 0.98803
881.0, 0.98677
881.2, 0.98614
881.4, 0.98733
881.6, 0.98755
881.8, 0.98821
882.0, 0.98862
882.2, 0.98958
882.4, 0.99
882.6, 0.98902
882.8, 0.98618
883.0, 0.98492
883.2, 0.98382
883.4, 0.98393
883.6, 0.98288
883.8, 0.98159
884.0, 0.98195
884.2, 0.9842
884.4, 0.98534
884.6, 0.98744
884.8, 0.98748
885.0, 0.9868
885.2, 0.98587
885.4, 0.98536
885.6, 0.98746
885.8, 0.98671
886.0, 0.98838
886.2, 0.98716
886.4, 0.98225
886.6, 0.97975
886.8, 0.97829
887.0, 0.97778
887.2, 0.97863
887.4, 0.97818
887.6, 0.97845
887.8, 0.97904
888.0, 0.97764
888.2, 0.97718
888.4, 0.97451
888.6, 0.97432
888.8, 0.97776
889.0, 0.97965
889.2, 0.97968
889.4, 0.97901
889.6, 0.98212
889.8, 0.98094
890.0, 0.97938
890.2, 0.97939
890.4, 0.98052
890.6, 0.97882
890.8, 0.97814
891.0, 0.97914
891.2, 0.97819
891.4, 0.97771
891.6, 0.97514
891.8, 0.97701
892.0, 0.97713
892.2, 0.97492
892.4, 0.97516
892.6, 0.97563
892.8, 0.97461
893.0, 0.97527
893.2, 0.97539
893.4, 0.97306
893.6, 0.97492
893.8, 0.97783
894.0, 0.98104
894.2, 0.98494
894.4, 0.98502
894.6, 0.9858
894.8, 0.98553
895.0, 0.98577
895.2, 0.98548
895.4, 0.9847
895.6, 0.98381
895.8, 0.98345
896.0, 0.98062
896.2, 0.97915
896.4, 0.97997
896.6, 0.98116
896.8, 0.98216
897.0, 0.98339
897.2, 0.98364
897.4, 0.98366
897.6, 0.98501
897.8, 0.98406
898.0, 0.98734
898.2, 0.98767
898.4, 0.98599
898.6, 0.98239
898.8, 0.9799
899.0, 0.98112
899.2, 0.98251
899.4, 0.98387
899.6, 0.98408
899.8, 0.98366
900.0, 0.98246
900.2, 0.98529
900.4, 0.98693
900.6, 0.98553
900.8, 0.98323
901.0, 0.98328
901.2, 0.98296
901.4, 0.98257
901.6, 0.98111
901.8, 0.97937
902.0, 0.98131
902.2, 0.98422
902.4, 0.98403
902.6, 0.98697
902.8, 0.98692
903.0, 0.98759
903.2, 0.98772
903.4, 0.98841
903.6, 0.98748
903.8, 0.98702
904.0, 0.98785
904.2, 0.98639
904.4, 0.9882
904.6, 0.98881
904.8, 0.98853
905.0, 0.98512
905.2, 0.98272
905.4, 0.98504
905.6, 0.98735
905.8, 0.9865
906.0, 0.98571
906.2, 0.98588
906.4, 0.98575
906.6, 0.98683
906.8, 0.98753
907.0, 0.98812
907.2, 0.98665
907.4, 0.98934
907.6, 0.99068
907.8, 0.9879
908.0, 0.98712
908.2, 0.98686
908.4, 0.98575
908.6, 0.98672
908.8, 0.98735
909.0, 0.9884
909.2, 0.98821
909.4, 0.99044
909.6, 0.9909
909.8, 0.98791
910.0, 0.98514
910.2, 0.98393
910.4, 0.98455
910.6, 0.98318
910.8, 0.97922
911.0, 0.98248
911.2, 0.9808
911.4, 0.98083
911.6, 0.97925
911.8, 0.97629
912.0, 0.97482
912.2, 0.97578
912.4, 0.97885
912.6, 0.97979
912.8, 0.98101
913.0, 0.98039
913.2, 0.97745
913.4, 0.97439
913.6, 0.97434
913.8, 0.97525
914.0, 0.97484
914.2, 0.97499
914.4, 0.97644
914.6, 0.97495
914.8, 0.97441
915.0, 0.97403
915.2, 0.97524
915.4, 0.97279
915.6, 0.97334
915.8, 0.97495
916.0, 0.97515
916.2, 0.97592
916.4, 0.97519
916.6, 0.97764
916.8, 0.97836
917.0, 0.97646
917.2, 0.97763
917.4, 0.97584
917.6, 0.97307
917.8, 0.97341
918.0, 0.97229
918.2, 0.97391
918.4, 0.9754
918.6, 0.97705
918.8, 0.9786
919.0, 0.98141
919.2, 0.98026
919.4, 0.97698
919.6, 0.97641
919.8, 0.97664
920.0, 0.97769
920.2, 0.97645
920.4, 0.97694
920.6, 0.97912
920.8, 0.98013
921.0, 0.9813
921.2, 0.98415
921.4, 0.98194
921.6, 0.98015
921.8, 0.9779
922.0, 0.9769
922.2, 0.97727
922.4, 0.97749
922.6, 0.97717
922.8, 0.97614
923.0, 0.97511
923.2, 0.97499
923.4, 0.97615
923.6, 0.97726
923.8, 0.97932
924.0, 0.98028
924.2, 0.98079
924.4, 0.98158
924.6, 0.98301
924.8, 0.98418
925.0, 0.98488
925.2, 0.98252
925.4, 0.983
925.6, 0.98349
925.8, 0.98164
926.0, 0.9816
926.2, 0.98055
926.4, 0.97848
926.6, 0.97643
926.8, 0.97591
927.0, 0.97816
927.2, 0.97861
927.4, 0.97833
927.6, 0.98007
927.8, 0.98026
928.0, 0.98031
928.2, 0.98086
928.4, 0.98069
928.6, 0.98076
928.8, 0.97897
929.0, 0.97864
929.2, 0.97934
929.4, 0.97699
929.6, 0.97541
929.8, 0.97643
930.0, 0.97684
930.2, 0.97959
930.4, 0.98231
930.6, 0.98491
930.8, 0.98418
931.0, 0.98293
931.2, 0.98213
931.4, 0.97936
931.6, 0.97633
931.8, 0.97624
932.0, 0.97837
932.2, 0.97772
932.4, 0.9764
932.6, 0.97739
932.8, 0.98016
933.0, 0.97888
933.2, 0.97773
933.4, 0.9769
933.6, 0.97606
933.8, 0.97557
934.0, 0.97364
934.2, 0.97318
934.4, 0.97166
934.6, 0.97535
934.8, 0.9754
935.0, 0.97644
935.2, 0.97575
935.4, 0.9739
935.6, 0.97394
935.8, 0.97226
936.0, 0.97296
936.2, 0.97273
936.4, 0.96953
936.6, 0.97049
936.8, 0.97072
937.0, 0.97168
937.2, 0.97212
937.4, 0.97098
937.6, 0.96948
937.8, 0.96733
938.0, 0.96665
938.2, 0.9645
938.4, 0.96692
938.6, 0.96649
938.8, 0.96565
939.0, 0.96473
939.2, 0.96247
939.4, 0.95962
939.6, 0.9596
939.8, 0.96072
940.0, 0.95932
940.2, 0.95999
940.4, 0.96013
940.6, 0.9606
940.8, 0.95849
941.0, 0.95878
941.2, 0.95754
941.4, 0.95697
941.6, 0.95623
941.8, 0.95782
942.0, 0.96122
942.2, 0.96323
942.4, 0.96065
942.6, 0.95897
942.8, 0.95523
943.0, 0.95777
943.2, 0.9606
943.4, 0.96085
943.6, 0.96182
943.8, 0.9599
944.0, 0.96215
944.2, 0.96249
944.4, 0.96324
944.6, 0.9611
944.8, 0.96023
945.0, 0.95642
945.2, 0.95506
945.4, 0.95328
945.6, 0.95338
945.8, 0.9531
946.0, 0.952
946.2, 0.95504
946.4, 0.95632
946.6, 0.95707
946.8, 0.95477
947.0, 0.95194
947.2, 0.95227
947.4, 0.95166
947.6, 0.95269
947.8, 0.95373
948.0, 0.95444
948.2, 0.95296
948.4, 0.95677
948.6, 0.95452
948.8, 0.95347
949.0, 0.95277
949.2, 0.95154
949.4, 0.95305
949.6, 0.95749
949.8, 0.95764
950.0, 0.95677