#Typical Measured Spectrum of Semrock FF495-Di03 Optical Filter	
#For wavelengths between 320 and 1120 nm, values near or below 3e-7 (Optical Density 6.5) are measurement noise limited.
#For wavelengths < 320 nm and > 1120 nm, values near or below 3e-6 (Optical Density 5.5) are measurement noise limited. 
#Data format:  Wavelength (nm) <tab> Transmission (0 to 1)
#Type: dichroic,
#Name: Semrock FF495-Di03
wavelength,transmission
350.0, 0.01602
350.2, 0.0185
350.4, 0.02016
350.6, 0.02063
350.8, 0.02036
351.0, 0.01977
351.2, 0.01788
351.4, 0.01564
351.6, 0.01295
351.8, 0.01073
352.0, 0.00898
352.2, 0.00764
352.4, 0.00681
352.6, 0.00642
352.8, 0.00613
353.0, 0.00618
353.2, 0.00672
353.4, 0.0069
353.6, 0.00774
353.8, 0.00814
354.0, 0.00879
354.2, 0.0092
354.4, 0.00921
354.6, 0.0089
354.8, 0.00826
355.0, 0.00767
355.2, 0.00667
355.4, 0.00569
355.6, 0.00481
355.8, 0.00404
356.0, 0.00329
356.2, 0.00287
356.4, 0.00255
356.6, 0.00238
356.8, 0.00224
357.0, 0.00213
357.2, 0.00212
357.4, 0.00238
357.6, 0.00237
357.8, 0.00259
358.0, 0.00272
358.2, 0.00318
358.4, 0.00351
358.6, 0.00398
358.8, 0.00429
359.0, 0.00461
359.2, 0.00498
359.4, 0.00498
359.6, 0.00487
359.8, 0.00463
360.0, 0.00431
360.2, 0.00393
360.4, 0.0035
360.6, 0.00304
360.8, 0.00284
361.0, 0.00259
361.2, 0.00245
361.4, 0.00232
361.6, 0.00225
361.8, 0.00239
362.0, 0.00243
362.2, 0.00249
362.4, 0.00267
362.6, 0.00299
362.8, 0.00341
363.0, 0.00398
363.2, 0.00479
363.4, 0.00571
363.6, 0.00657
363.8, 0.00708
364.0, 0.00783
364.2, 0.00804
364.4, 0.00777
364.6, 0.00757
364.8, 0.00669
365.0, 0.00579
365.2, 0.0048
365.4, 0.00402
365.6, 0.00343
365.8, 0.00279
366.0, 0.00251
366.2, 0.00219
366.4, 0.00207
366.6, 0.00191
366.8, 0.00174
367.0, 0.00166
367.2, 0.00157
367.4, 0.00154
367.6, 0.00161
367.8, 0.00156
368.0, 0.00158
368.2, 0.00161
368.4, 0.00159
368.6, 0.00168
368.8, 0.00168
369.0, 0.00167
369.2, 0.00177
369.4, 0.00189
369.6, 0.00186
369.8, 0.00198
370.0, 0.00204
370.2, 0.00218
370.4, 0.00244
370.6, 0.00281
370.8, 0.00314
371.0, 0.00353
371.2, 0.00404
371.4, 0.00446
371.6, 0.00485
371.8, 0.00526
372.0, 0.00542
372.2, 0.0055
372.4, 0.00529
372.6, 0.00497
372.8, 0.00448
373.0, 0.004
373.2, 0.00349
373.4, 0.00306
373.6, 0.00266
373.8, 0.00235
374.0, 0.0021
374.2, 0.00201
374.4, 0.0018
374.6, 0.00175
374.8, 0.00173
375.0, 0.00166
375.2, 0.00162
375.4, 0.00174
375.6, 0.00178
375.8, 0.00176
376.0, 0.00188
376.2, 0.00193
376.4, 0.00203
376.6, 0.00215
376.8, 0.00208
377.0, 0.00219
377.2, 0.00207
377.4, 0.00197
377.6, 0.00194
377.8, 0.0017
378.0, 0.00166
378.2, 0.00153
378.4, 0.00139
378.6, 0.00128
378.8, 0.00118
379.0, 0.00111
379.2, 0.00106
379.4, 9.892e-04
379.6, 9.4427e-04
379.8, 9.1551e-04
380.0, 9.4725e-04
380.2, 9.3388e-04
380.4, 8.8436e-04
380.6, 9.6426e-04
380.8, 9.8472e-04
381.0, 0.00102
381.2, 0.00105
381.4, 0.00107
381.6, 0.00119
381.8, 0.00122
382.0, 0.00127
382.2, 0.00127
382.4, 0.0013
382.6, 0.00133
382.8, 0.00128
383.0, 0.0012
383.2, 0.00116
383.4, 0.00115
383.6, 0.00107
383.8, 9.6519e-04
384.0, 9.5415e-04
384.2, 8.8703e-04
384.4, 8.3815e-04
384.6, 7.9773e-04
384.8, 7.7531e-04
385.0, 7.8273e-04
385.2, 7.8015e-04
385.4, 7.867e-04
385.6, 7.2617e-04
385.8, 7.6042e-04
386.0, 7.9069e-04
386.2, 7.5984e-04
386.4, 7.8026e-04
386.6, 8.8487e-04
386.8, 8.5074e-04
387.0, 9.1593e-04
387.2, 0.001
387.4, 0.00105
387.6, 0.00112
387.8, 0.00116
388.0, 0.00114
388.2, 0.00119
388.4, 0.0012
388.6, 0.00119
388.8, 0.00122
389.0, 0.00118
389.2, 0.00113
389.4, 0.00107
389.6, 9.8948e-04
389.8, 9.9049e-04
390.0, 9.7212e-04
390.2, 8.8276e-04
390.4, 9.0951e-04
390.6, 8.4539e-04
390.8, 8.2956e-04
391.0, 8.1863e-04
391.2, 8.335e-04
391.4, 7.8282e-04
391.6, 8.3832e-04
391.8, 8.3166e-04
392.0, 0.00109
392.2, 0.00104
392.4, 0.00123
392.6, 0.00148
392.8, 0.00158
393.0, 0.00156
393.2, 0.00139
393.4, 0.00189
393.6, 0.00213
393.8, 0.00207
394.0, 0.00215
394.2, 0.00222
394.4, 0.00225
394.6, 0.00229
394.8, 0.00253
395.0, 0.00243
395.2, 0.00239
395.4, 0.00214
395.6, 0.00223
395.8, 0.00225
396.0, 0.00207
396.2, 0.00206
396.4, 0.00177
396.6, 0.002
396.8, 0.00207
397.0, 0.00194
397.2, 0.00209
397.4, 0.00196
397.6, 0.00202
397.8, 0.00203
398.0, 0.00216
398.2, 0.00238
398.4, 0.00234
398.6, 0.00253
398.8, 0.00295
399.0, 0.00338
399.2, 0.00351
399.4, 0.0039
399.6, 0.00427
399.8, 0.00482
400.0, 0.00527
400.2, 0.00581
400.4, 0.00602
400.6, 0.00639
400.8, 0.00667
401.0, 0.00674
401.2, 0.00681
401.4, 0.00685
401.6, 0.00677
401.8, 0.00655
402.0, 0.00659
402.2, 0.00629
402.4, 0.00625
402.6, 0.0062
402.8, 0.00608
403.0, 0.00619
403.2, 0.0062
403.4, 0.00639
403.6, 0.00674
403.8, 0.00687
404.0, 0.00741
404.2, 0.00804
404.4, 0.00855
404.6, 0.00958
404.8, 0.01058
405.0, 0.01176
405.2, 0.0134
405.4, 0.01517
405.6, 0.01679
405.8, 0.01906
406.0, 0.02112
406.2, 0.02333
406.4, 0.02552
406.6, 0.02763
406.8, 0.02924
407.0, 0.03027
407.2, 0.03121
407.4, 0.03142
407.6, 0.03161
407.8, 0.03083
408.0, 0.02989
408.2, 0.02872
408.4, 0.02729
408.6, 0.0258
408.8, 0.02434
409.0, 0.02319
409.2, 0.02174
409.4, 0.0207
409.6, 0.01977
409.8, 0.01908
410.0, 0.01849
410.2, 0.0179
410.4, 0.01745
410.6, 0.01736
410.8, 0.01729
411.0, 0.01751
411.2, 0.01757
411.4, 0.01783
411.6, 0.0184
411.8, 0.0189
412.0, 0.01927
412.2, 0.02006
412.4, 0.02085
412.6, 0.02142
412.8, 0.02185
413.0, 0.0222
413.2, 0.02235
413.4, 0.02215
413.6, 0.02163
413.8, 0.02082
414.0, 0.01984
414.2, 0.01853
414.4, 0.01722
414.6, 0.01584
414.8, 0.01423
415.0, 0.01284
415.2, 0.01175
415.4, 0.01045
415.6, 0.00929
415.8, 0.00845
416.0, 0.00765
416.2, 0.0071
416.4, 0.00642
416.6, 0.00611
416.8, 0.00565
417.0, 0.00547
417.2, 0.00526
417.4, 0.00513
417.6, 0.00516
417.8, 0.00519
418.0, 0.00521
418.2, 0.00538
418.4, 0.00571
418.6, 0.00588
418.8, 0.00613
419.0, 0.00653
419.2, 0.00689
419.4, 0.00754
419.6, 0.00801
419.8, 0.00859
420.0, 0.00917
420.2, 0.00954
420.4, 0.01009
420.6, 0.01051
420.8, 0.0107
421.0, 0.01086
421.2, 0.01083
421.4, 0.01076
421.6, 0.01037
421.8, 0.01002
422.0, 0.0094
422.2, 0.00897
422.4, 0.00826
422.6, 0.00767
422.8, 0.00709
423.0, 0.0066
423.2, 0.00614
423.4, 0.00574
423.6, 0.0053
423.8, 0.00505
424.0, 0.00481
424.2, 0.00465
424.4, 0.00449
424.6, 0.00448
424.8, 0.00442
425.0, 0.00449
425.2, 0.00455
425.4, 0.00465
425.6, 0.00476
425.8, 0.00502
426.0, 0.00528
426.2, 0.00569
426.4, 0.0061
426.6, 0.00668
426.8, 0.00732
427.0, 0.00811
427.2, 0.00891
427.4, 0.00995
427.6, 0.01116
427.8, 0.01264
428.0, 0.01408
428.2, 0.01576
428.4, 0.01747
428.6, 0.01918
428.8, 0.02076
429.0, 0.02216
429.2, 0.02318
429.4, 0.02403
429.6, 0.02437
429.8, 0.02436
430.0, 0.02396
430.2, 0.02332
430.4, 0.02237
430.6, 0.02135
430.8, 0.02011
431.0, 0.01881
431.2, 0.01763
431.4, 0.01644
431.6, 0.01545
431.8, 0.01445
432.0, 0.01371
432.2, 0.01289
432.4, 0.01233
432.6, 0.01182
432.8, 0.01135
433.0, 0.01094
433.2, 0.01065
433.4, 0.01041
433.6, 0.01028
433.8, 0.01012
434.0, 0.01001
434.2, 0.01004
434.4, 0.01007
434.6, 0.01009
434.8, 0.01027
435.0, 0.01051
435.2, 0.01071
435.4, 0.01113
435.6, 0.01157
435.8, 0.01209
436.0, 0.01265
436.2, 0.01339
436.4, 0.01427
436.6, 0.01523
436.8, 0.01614
437.0, 0.01698
437.2, 0.01775
437.4, 0.01831
437.6, 0.01881
437.8, 0.019
438.0, 0.01875
438.2, 0.01833
438.4, 0.01765
438.6, 0.0166
438.8, 0.01531
439.0, 0.0141
439.2, 0.01256
439.4, 0.01099
439.6, 0.00967
439.8, 0.00845
440.0, 0.00734
440.2, 0.0064
440.4, 0.00561
440.6, 0.00497
440.8, 0.00443
441.0, 0.00405
441.2, 0.00371
441.4, 0.00349
441.6, 0.00337
441.8, 0.00338
442.0, 0.00352
442.2, 0.00382
442.4, 0.00417
442.6, 0.00481
442.8, 0.00558
443.0, 0.00633
443.2, 0.00701
443.4, 0.00761
443.6, 0.00813
443.8, 0.00844
444.0, 0.00849
444.2, 0.0086
444.4, 0.00833
444.6, 0.00794
444.8, 0.00752
445.0, 0.00701
445.2, 0.00644
445.4, 0.00615
445.6, 0.00597
445.8, 0.00599
446.0, 0.00634
446.2, 0.0067
446.4, 0.00721
446.6, 0.00771
446.8, 0.00804
447.0, 0.00827
447.2, 0.0083
447.4, 0.00822
447.6, 0.00792
447.8, 0.00753
448.0, 0.0069
448.2, 0.00628
448.4, 0.00551
448.6, 0.00485
448.8, 0.00412
449.0, 0.00352
449.2, 0.00302
449.4, 0.00266
449.6, 0.00234
449.8, 0.00202
450.0, 0.00186
450.2, 0.00171
450.4, 0.00164
450.6, 0.00155
450.8, 0.00154
451.0, 0.00151
451.2, 0.00149
451.4, 0.00146
451.6, 0.00149
451.8, 0.00147
452.0, 0.00148
452.2, 0.00144
452.4, 0.00144
452.6, 0.00145
452.8, 0.00143
453.0, 0.00143
453.2, 0.00144
453.4, 0.00147
453.6, 0.00156
453.8, 0.00169
454.0, 0.00187
454.2, 0.00217
454.4, 0.00259
454.6, 0.00314
454.8, 0.00395
455.0, 0.00519
455.2, 0.00664
455.4, 0.00845
455.6, 0.01017
455.8, 0.01175
456.0, 0.01301
456.2, 0.01385
456.4, 0.01443
456.6, 0.01445
456.8, 0.01403
457.0, 0.01327
457.2, 0.01207
457.4, 0.01058
457.6, 0.0088
457.8, 0.00699
458.0, 0.00546
458.2, 0.00413
458.4, 0.00318
458.6, 0.00254
458.8, 0.00206
459.0, 0.00174
459.2, 0.00148
459.4, 0.00137
459.6, 0.00118
459.8, 0.00108
460.0, 0.00105
460.2, 9.2604e-04
460.4, 8.488e-04
460.6, 8.1359e-04
460.8, 7.8918e-04
461.0, 7.6195e-04
461.2, 7.8598e-04
461.4, 7.4687e-04
461.6, 7.4016e-04
461.8, 7.4657e-04
462.0, 7.4305e-04
462.2, 7.6829e-04
462.4, 7.7871e-04
462.6, 8.0875e-04
462.8, 8.4864e-04
463.0, 8.3204e-04
463.2, 8.9924e-04
463.4, 9.4999e-04
463.6, 0.00102
463.8, 0.0011
464.0, 0.00119
464.2, 0.0013
464.4, 0.00149
464.6, 0.00167
464.8, 0.00196
465.0, 0.00229
465.2, 0.0028
465.4, 0.00348
465.6, 0.00424
465.8, 0.00517
466.0, 0.0063
466.2, 0.00743
466.4, 0.00846
466.6, 0.00942
466.8, 0.01029
467.0, 0.01077
467.2, 0.01115
467.4, 0.01138
467.6, 0.01139
467.8, 0.01103
468.0, 0.01103
468.2, 0.01095
468.4, 0.01008
468.6, 0.00907
468.8, 0.00798
469.0, 0.00693
469.2, 0.00602
469.4, 0.00517
469.6, 0.00448
469.8, 0.00398
470.0, 0.0036
470.2, 0.00332
470.4, 0.0031
470.6, 0.00294
470.8, 0.00276
471.0, 0.00268
471.2, 0.00256
471.4, 0.00251
471.6, 0.00246
471.8, 0.00244
472.0, 0.00241
472.2, 0.00242
472.4, 0.00245
472.6, 0.00236
472.8, 0.00236
473.0, 0.00243
473.2, 0.00242
473.4, 0.00247
473.6, 0.00264
473.8, 0.00273
474.0, 0.00289
474.2, 0.00304
474.4, 0.00319
474.6, 0.0033
474.8, 0.00342
475.0, 0.00343
475.2, 0.00354
475.4, 0.00359
475.6, 0.0036
475.8, 0.00357
476.0, 0.00347
476.2, 0.00346
476.4, 0.00339
476.6, 0.0034
476.8, 0.00346
477.0, 0.00354
477.2, 0.00362
477.4, 0.00367
477.6, 0.00381
477.8, 0.00395
478.0, 0.00403
478.2, 0.0041
478.4, 0.00418
478.6, 0.00433
478.8, 0.0045
479.0, 0.00454
479.2, 0.00472
479.4, 0.00479
479.6, 0.00488
479.8, 0.00496
480.0, 0.0051
480.2, 0.00528
480.4, 0.00527
480.6, 0.00531
480.8, 0.00545
481.0, 0.00556
481.2, 0.0057
481.4, 0.00573
481.6, 0.00587
481.8, 0.00594
482.0, 0.0061
482.2, 0.00617
482.4, 0.00632
482.6, 0.00646
482.8, 0.00662
483.0, 0.00678
483.2, 0.00701
483.4, 0.00717
483.6, 0.00738
483.8, 0.00765
484.0, 0.0079
484.2, 0.00824
484.4, 0.00855
484.6, 0.0089
484.8, 0.00939
485.0, 0.00972
485.2, 0.01022
485.4, 0.01078
485.6, 0.01142
485.8, 0.01215
486.0, 0.01299
486.2, 0.01391
486.4, 0.01488
486.6, 0.01619
486.8, 0.01749
487.0, 0.01907
487.2, 0.02075
487.4, 0.02281
487.6, 0.02513
487.8, 0.0278
488.0, 0.03086
488.2, 0.03439
488.4, 0.03863
488.6, 0.04331
488.8, 0.04902
489.0, 0.0554
489.2, 0.06284
489.4, 0.0713
489.6, 0.08111
489.8, 0.09234
490.0, 0.10497
490.2, 0.11925
490.4, 0.13591
490.6, 0.15327
490.8, 0.17181
491.0, 0.19262
491.2, 0.21442
491.4, 0.23727
491.6, 0.26103
491.8, 0.28403
492.0, 0.30658
492.2, 0.32966
492.4, 0.35035
492.6, 0.37164
492.8, 0.39051
493.0, 0.40833
493.2, 0.4241
493.4, 0.43658
493.6, 0.44797
493.8, 0.45834
494.0, 0.46622
494.2, 0.47304
494.4, 0.47918
494.6, 0.48358
494.8, 0.48825
495.0, 0.4931
495.2, 0.49761
495.4, 0.50204
495.6, 0.50896
495.8, 0.51545
496.0, 0.52509
496.2, 0.53525
496.4, 0.54643
496.6, 0.56238
496.8, 0.58132
497.0, 0.60344
497.2, 0.62637
497.4, 0.65245
497.6, 0.68073
497.8, 0.71018
498.0, 0.74263
498.2, 0.77421
498.4, 0.80533
498.6, 0.83437
498.8, 0.86091
499.0, 0.88569
499.2, 0.90544
499.4, 0.9224
499.6, 0.93559
499.8, 0.94784
500.0, 0.95638
500.2, 0.96263
500.4, 0.96622
500.6, 0.96632
500.8, 0.96541
501.0, 0.96644
501.2, 0.96734
501.4, 0.96782
501.6, 0.96593
501.8, 0.96459
502.0, 0.96597
502.2, 0.96566
502.4, 0.96885
502.6, 0.96949
502.8, 0.97048
503.0, 0.97012
503.2, 0.97015
503.4, 0.96919
503.6, 0.9693
503.8, 0.96959
504.0, 0.97
504.2, 0.96937
504.4, 0.9686
504.6, 0.96669
504.8, 0.96607
505.0, 0.96662
505.2, 0.96422
505.4, 0.96359
505.6, 0.96309
505.8, 0.96107
506.0, 0.96184
506.2, 0.96109
506.4, 0.95995
506.6, 0.95996
506.8, 0.95915
507.0, 0.95808
507.2, 0.9582
507.4, 0.95927
507.6, 0.95841
507.8, 0.95735
508.0, 0.95677
508.2, 0.95713
508.4, 0.95664
508.6, 0.95847
508.8, 0.95909
509.0, 0.95773
509.2, 0.95795
509.4, 0.95598
509.6, 0.95617
509.8, 0.95748
510.0, 0.95733
510.2, 0.95837
510.4, 0.9579
510.6, 0.9584
510.8, 0.95848
511.0, 0.95787
511.2, 0.95779
511.4, 0.95832
511.6, 0.96077
511.8, 0.9614
512.0, 0.96404
512.2, 0.9638
512.4, 0.96315
512.6, 0.96366
512.8, 0.9636
513.0, 0.96551
513.2, 0.96774
513.4, 0.9674
513.6, 0.96657
513.8, 0.96733
514.0, 0.96876
514.2, 0.96905
514.4, 0.96869
514.6, 0.96942
514.8, 0.97003
515.0, 0.96874
515.2, 0.96706
515.4, 0.96771
515.6, 0.96732
515.8, 0.96682
516.0, 0.96533
516.2, 0.96275
516.4, 0.96349
516.6, 0.96357
516.8, 0.96218
517.0, 0.96178
517.2, 0.96205
517.4, 0.96167
517.6, 0.96265
517.8, 0.96167
518.0, 0.96119
518.2, 0.96029
518.4, 0.95899
518.6, 0.95895
518.8, 0.95992
519.0, 0.95988
519.2, 0.96068
519.4, 0.96078
519.6, 0.96064
519.8, 0.96258
520.0, 0.96211
520.2, 0.96083
520.4, 0.95948
520.6, 0.96066
520.8, 0.95947
521.0, 0.95918
521.2, 0.96197
521.4, 0.96267
521.6, 0.96334
521.8, 0.96401
522.0, 0.96682
522.2, 0.96822
522.4, 0.96477
522.6, 0.96442
522.8, 0.96653
523.0, 0.96643
523.2, 0.96492
523.4, 0.96481
523.6, 0.96421
523.8, 0.96093
524.0, 0.96177
524.2, 0.96394
524.4, 0.96213
524.6, 0.96078
524.8, 0.96147
525.0, 0.96267
525.2, 0.96211
525.4, 0.96153
525.6, 0.95894
525.8, 0.95865
526.0, 0.96041
526.2, 0.95983
526.4, 0.95782
526.6, 0.95655
526.8, 0.95693
527.0, 0.9588
527.2, 0.95934
527.4, 0.96151
527.6, 0.96117
527.8, 0.96054
528.0, 0.96148
528.2, 0.9631
528.4, 0.96393
528.6, 0.96328
528.8, 0.9642
529.0, 0.96537
529.2, 0.96517
529.4, 0.9663
529.6, 0.96592
529.8, 0.9664
530.0, 0.96694
530.2, 0.96793
530.4, 0.96813
530.6, 0.96796
530.8, 0.96642
531.0, 0.96597
531.2, 0.96678
531.4, 0.96628
531.6, 0.96676
531.8, 0.96541
532.0, 0.96557
532.2, 0.96632
532.4, 0.96535
532.6, 0.96547
532.8, 0.96599
533.0, 0.96579
533.2, 0.96579
533.4, 0.96419
533.6, 0.96247
533.8, 0.96143
534.0, 0.96272
534.2, 0.96339
534.4, 0.96129
534.6, 0.9617
534.8, 0.96053
535.0, 0.95967
535.2, 0.96044
535.4, 0.96062
535.6, 0.95964
535.8, 0.96181
536.0, 0.96066
536.2, 0.96044
536.4, 0.9599
536.6, 0.96218
536.8, 0.96169
537.0, 0.96187
537.2, 0.96272
537.4, 0.96397
537.6, 0.96435
537.8, 0.96505
538.0, 0.96611
538.2, 0.96873
538.4, 0.96775
538.6, 0.96711
538.8, 0.96827
539.0, 0.97057
539.2, 0.96993
539.4, 0.97116
539.6, 0.97159
539.8, 0.97096
540.0, 0.96966
540.2, 0.96774
540.4, 0.96704
540.6, 0.96809
540.8, 0.96742
541.0, 0.96899
541.2, 0.97093
541.4, 0.96982
541.6, 0.96734
541.8, 0.96573
542.0, 0.96484
542.2, 0.96552
542.4, 0.96314
542.6, 0.96352
542.8, 0.96462
543.0, 0.96535
543.2, 0.96596
543.4, 0.9644
543.6, 0.96318
543.8, 0.96291
544.0, 0.9609
544.2, 0.96096
544.4, 0.96031
544.6, 0.9585
544.8, 0.957
545.0, 0.95708
545.2, 0.95801
545.4, 0.95854
545.6, 0.95734
545.8, 0.9574
546.0, 0.9593
546.2, 0.95909
546.4, 0.95866
546.6, 0.95834
546.8, 0.9591
547.0, 0.95969
547.2, 0.95937
547.4, 0.9608
547.6, 0.95947
547.8, 0.96053
548.0, 0.96238
548.2, 0.9627
548.4, 0.9627
548.6, 0.96348
548.8, 0.96352
549.0, 0.96542
549.2, 0.96527
549.4, 0.96387
549.6, 0.96211
549.8, 0.96285
550.0, 0.96402
550.2, 0.96655
550.4, 0.96702
550.6, 0.96596
550.8, 0.96524
551.0, 0.96531
551.2, 0.96542
551.4, 0.96577
551.6, 0.96641
551.8, 0.96414
552.0, 0.96447
552.2, 0.96505
552.4, 0.96467
552.6, 0.96208
552.8, 0.96308
553.0, 0.96288
553.2, 0.96109
553.4, 0.96016
553.6, 0.96125
553.8, 0.95955
554.0, 0.95958
554.2, 0.95908
554.4, 0.96121
554.6, 0.9609
554.8, 0.96089
555.0, 0.95996
555.2, 0.95834
555.4, 0.96039
555.6, 0.96039
555.8, 0.96062
556.0, 0.96101
556.2, 0.96224
556.4, 0.96147
556.6, 0.96017
556.8, 0.96221
557.0, 0.96286
557.2, 0.96192
557.4, 0.96376
557.6, 0.96371
557.8, 0.96339
558.0, 0.96581
558.2, 0.96581
558.4, 0.96649
558.6, 0.96614
558.8, 0.96662
559.0, 0.9658
559.2, 0.96568
559.4, 0.96701
559.6, 0.96945
559.8, 0.96846
560.0, 0.96784
560.2, 0.96726
560.4, 0.96867
560.6, 0.96666
560.8, 0.96856
561.0, 0.96889
561.2, 0.97008
561.4, 0.97318
561.6, 0.97201
561.8, 0.96931
562.0, 0.96882
562.2, 0.97056
562.4, 0.9699
562.6, 0.96934
562.8, 0.97149
563.0, 0.97156
563.2, 0.97214
563.4, 0.96894
563.6, 0.96989
563.8, 0.96948
564.0, 0.96934
564.2, 0.97048
564.4, 0.96803
564.6, 0.96714
564.8, 0.96635
565.0, 0.96636
565.2, 0.9647
565.4, 0.96313
565.6, 0.96366
565.8, 0.96256
566.0, 0.96249
566.2, 0.96321
566.4, 0.9637
566.6, 0.96371
566.8, 0.96254
567.0, 0.96131
567.2, 0.9631
567.4, 0.96353
567.6, 0.96213
567.8, 0.9596
568.0, 0.96124
568.2, 0.96113
568.4, 0.96056
568.6, 0.9615
568.8, 0.96051
569.0, 0.96129
569.2, 0.96024
569.4, 0.95968
569.6, 0.96049
569.8, 0.9613
570.0, 0.96087
570.2, 0.9599
570.4, 0.95978
570.6, 0.96088
570.8, 0.9612
571.0, 0.96077
571.2, 0.96178
571.4, 0.96283
571.6, 0.96263
571.8, 0.96254
572.0, 0.9617
572.2, 0.96383
572.4, 0.96506
572.6, 0.96518
572.8, 0.96481
573.0, 0.96273
573.2, 0.96248
573.4, 0.96383
573.6, 0.96442
573.8, 0.96403
574.0, 0.96531
574.2, 0.96602
574.4, 0.96749
574.6, 0.9656
574.8, 0.96595
575.0, 0.9662
575.2, 0.96683
575.4, 0.9655
575.6, 0.96414
575.8, 0.9633
576.0, 0.96526
576.2, 0.96533
576.4, 0.9645
576.6, 0.96436
576.8, 0.9629
577.0, 0.96239
577.2, 0.96259
577.4, 0.96317
577.6, 0.96235
577.8, 0.96315
578.0, 0.96499
578.2, 0.96301
578.4, 0.96276
578.6, 0.96276
578.8, 0.96161
579.0, 0.96026
579.2, 0.96092
579.4, 0.96253
579.6, 0.96406
579.8, 0.9648
580.0, 0.96409
580.2, 0.96501
580.4, 0.96593
580.6, 0.96657
580.8, 0.96385
581.0, 0.96157
581.2, 0.96116
581.4, 0.96053
581.6, 0.96116
581.8, 0.96283
582.0, 0.96457
582.2, 0.96448
582.4, 0.96285
582.6, 0.96226
582.8, 0.96226
583.0, 0.96331
583.2, 0.96621
583.4, 0.96443
583.6, 0.96424
583.8, 0.9642
584.0, 0.96405
584.2, 0.96459
584.4, 0.96544
584.6, 0.96557
584.8, 0.9645
585.0, 0.96602
585.2, 0.96657
585.4, 0.96534
585.6, 0.96674
585.8, 0.96701
586.0, 0.9664
586.2, 0.96399
586.4, 0.96672
586.6, 0.96587
586.8, 0.96603
587.0, 0.96571
587.2, 0.96576
587.4, 0.96625
587.6, 0.96753
587.8, 0.96933
588.0, 0.96742
588.2, 0.96648
588.4, 0.96547
588.6, 0.9645
588.8, 0.96731
589.0, 0.96682
589.2, 0.96531
589.4, 0.96413
589.6, 0.96356
589.8, 0.96509
590.0, 0.96571
590.2, 0.96491
590.4, 0.9644
590.6, 0.96405
590.8, 0.9636
591.0, 0.96378
591.2, 0.96471
591.4, 0.96591
591.6, 0.96744
591.8, 0.96482
592.0, 0.96451
592.2, 0.96361
592.4, 0.96339
592.6, 0.96332
592.8, 0.9654
593.0, 0.96448
593.2, 0.96522
593.4, 0.96527
593.6, 0.96449
593.8, 0.9636
594.0, 0.96423
594.2, 0.96348
594.4, 0.96258
594.6, 0.96235
594.8, 0.96324
595.0, 0.96436
595.2, 0.96863
595.4, 0.96806
595.6, 0.96775
595.8, 0.96721
596.0, 0.96608
596.2, 0.96674
596.4, 0.96668
596.6, 0.96804
596.8, 0.96783
597.0, 0.96847
597.2, 0.96725
597.4, 0.96791
597.6, 0.96854
597.8, 0.96861
598.0, 0.96686
598.2, 0.96594
598.4, 0.96843
598.6, 0.97065
598.8, 0.97116
599.0, 0.96906
599.2, 0.96956
599.4, 0.97072
599.6, 0.97275
599.8, 0.97172
600.0, 0.96861
600.2, 0.96759
600.4, 0.96733
600.6, 0.96895
600.8, 0.97075
601.0, 0.97033
601.2, 0.97101
601.4, 0.97103
601.6, 0.9703
601.8, 0.97166
602.0, 0.96902
602.2, 0.9725
602.4, 0.9733
602.6, 0.97219
602.8, 0.97223
603.0, 0.97161
603.2, 0.97341
603.4, 0.97014
603.6, 0.96965
603.8, 0.9674
604.0, 0.9676
604.2, 0.96775
604.4, 0.96917
604.6, 0.96949
604.8, 0.96939
605.0, 0.96882
605.2, 0.9666
605.4, 0.96626
605.6, 0.96687
605.8, 0.96912
606.0, 0.9708
606.2, 0.97012
606.4, 0.96733
606.6, 0.96697
606.8, 0.96581
607.0, 0.96727
607.2, 0.96776
607.4, 0.96659
607.6, 0.96615
607.8, 0.96884
608.0, 0.97001
608.2, 0.97097
608.4, 0.97222
608.6, 0.97032
608.8, 0.96975
609.0, 0.97136
609.2, 0.9721
609.4, 0.97253
609.6, 0.97015
609.8, 0.97138
610.0, 0.97397
610.2, 0.97102
610.4, 0.97179
610.6, 0.97036
610.8, 0.97146
611.0, 0.97143
611.2, 0.97315
611.4, 0.9727
611.6, 0.9716
611.8, 0.96942
612.0, 0.96928
612.2, 0.96987
612.4, 0.97091
612.6, 0.97361
612.8, 0.97396
613.0, 0.9727
613.2, 0.97134
613.4, 0.97253
613.6, 0.97389
613.8, 0.97537
614.0, 0.97434
614.2, 0.97241
614.4, 0.97148
614.6, 0.97116
614.8, 0.97228
615.0, 0.97036
615.2, 0.96845
615.4, 0.96752
615.6, 0.96855
615.8, 0.96964
616.0, 0.97279
616.2, 0.97264
616.4, 0.97105
616.6, 0.97094
616.8, 0.97118
617.0, 0.97261
617.2, 0.97042
617.4, 0.96857
617.6, 0.96679
617.8, 0.96544
618.0, 0.96595
618.2, 0.96358
618.4, 0.96422
618.6, 0.96561
618.8, 0.96826
619.0, 0.96641
619.2, 0.96755
619.4, 0.9677
619.6, 0.96849
619.8, 0.96935
620.0, 0.96911
620.2, 0.96787
620.4, 0.96963
620.6, 0.96889
620.8, 0.97097
621.0, 0.97008
621.2, 0.97111
621.4, 0.97228
621.6, 0.97209
621.8, 0.97349
622.0, 0.97249
622.2, 0.97039
622.4, 0.97156
622.6, 0.97047
622.8, 0.97068
623.0, 0.97324
623.2, 0.97321
623.4, 0.97414
623.6, 0.97683
623.8, 0.97842
624.0, 0.97696
624.2, 0.97867
624.4, 0.9778
624.6, 0.97797
624.8, 0.9778
625.0, 0.97719
625.2, 0.97946
625.4, 0.97876
625.6, 0.97881
625.8, 0.97683
626.0, 0.97686
626.2, 0.97719
626.4, 0.97654
626.6, 0.97869
626.8, 0.98079
627.0, 0.97788
627.2, 0.97768
627.4, 0.97623
627.6, 0.97731
627.8, 0.97901
628.0, 0.97567
628.2, 0.97572
628.4, 0.97696
628.6, 0.9771
628.8, 0.97675
629.0, 0.9744
629.2, 0.97358
629.4, 0.97379
629.6, 0.97514
629.8, 0.97268
630.0, 0.9728
630.2, 0.97359
630.4, 0.97075
630.6, 0.97232
630.8, 0.96978
631.0, 0.97078
631.2, 0.97058
631.4, 0.96938
631.6, 0.97018
631.8, 0.9706
632.0, 0.97276
632.2, 0.97195
632.4, 0.96959
632.6, 0.96851
632.8, 0.96725
633.0, 0.96641
633.2, 0.96655
633.4, 0.96651
633.6, 0.96743
633.8, 0.9659
634.0, 0.96529
634.2, 0.96794
634.4, 0.96786
634.6, 0.96672
634.8, 0.96879
635.0, 0.96861
635.2, 0.96897
635.4, 0.96949
635.6, 0.97011
635.8, 0.969
636.0, 0.96832
636.2, 0.96875
636.4, 0.97007
636.6, 0.97025
636.8, 0.97114
637.0, 0.97288
637.2, 0.97069
637.4, 0.96878
637.6, 0.97234
637.8, 0.97477
638.0, 0.97497
638.2, 0.97375
638.4, 0.97379
638.6, 0.97308
638.8, 0.97379
639.0, 0.97153
639.2, 0.97335
639.4, 0.9732
639.6, 0.97277
639.8, 0.97356
640.0, 0.975
640.2, 0.97579
640.4, 0.97809
640.6, 0.97784
640.8, 0.97807
641.0, 0.97741
641.2, 0.97722
641.4, 0.97635
641.6, 0.97481
641.8, 0.97443
642.0, 0.97719
642.2, 0.97871
642.4, 0.98091
642.6, 0.97988
642.8, 0.97731
643.0, 0.97917
643.2, 0.97932
643.4, 0.97915
643.6, 0.97806
643.8, 0.97876
644.0, 0.97835
644.2, 0.97717
644.4, 0.97778
644.6, 0.97915
644.8, 0.98147
645.0, 0.98206
645.2, 0.98137
645.4, 0.97891
645.6, 0.97852
645.8, 0.97722
646.0, 0.97718
646.2, 0.97693
646.4, 0.97567
646.6, 0.97558
646.8, 0.97685
647.0, 0.97288
647.2, 0.97169
647.4, 0.97273
647.6, 0.97275
647.8, 0.97291
648.0, 0.97302
648.2, 0.97306
648.4, 0.97211
648.6, 0.97051
648.8, 0.97072
649.0, 0.97137
649.2, 0.97195
649.4, 0.97261
649.6, 0.9731
649.8, 0.97108
650.0, 0.9705
650.2, 0.97042
650.4, 0.97374
650.6, 0.97195
650.8, 0.9741
651.0, 0.97354
651.2, 0.97489
651.4, 0.97535
651.6, 0.97649
651.8, 0.97523
652.0, 0.97304
652.2, 0.9741
652.4, 0.97359
652.6, 0.97327
652.8, 0.97326
653.0, 0.97304
653.2, 0.973
653.4, 0.97402
653.6, 0.9721
653.8, 0.97387
654.0, 0.97899
654.2, 0.97794
654.4, 0.97955
654.6, 0.97991
654.8, 0.97912
655.0, 0.97806
655.2, 0.97931
655.4, 0.97785
655.6, 0.97852
655.8, 0.97851
656.0, 0.9773
656.2, 0.97775
656.4, 0.97687
656.6, 0.97881
656.8, 0.97901
657.0, 0.97781
657.2, 0.97666
657.4, 0.9751
657.6, 0.97434
657.8, 0.97442
658.0, 0.97421
658.2, 0.97818
658.4, 0.97861
658.6, 0.98012
658.8, 0.9807
659.0, 0.98002
659.2, 0.97839
659.4, 0.97781
659.6, 0.976
659.8, 0.97723
660.0, 0.97578
660.2, 0.97382
660.4, 0.97229
660.6, 0.97327
660.8, 0.97382
661.0, 0.97412
661.2, 0.97237
661.4, 0.97078
661.6, 0.97062
661.8, 0.97233
662.0, 0.97159
662.2, 0.97101
662.4, 0.97242
662.6, 0.97073
662.8, 0.97084
663.0, 0.97096
663.2, 0.972
663.4, 0.97033
663.6, 0.97002
663.8, 0.96868
664.0, 0.96741
664.2, 0.96748
664.4, 0.96823
664.6, 0.96896
664.8, 0.97138
665.0, 0.97157
665.2, 0.97086
665.4, 0.97041
665.6, 0.97038
665.8, 0.97053
666.0, 0.97023
666.2, 0.967
666.4, 0.96739
666.6, 0.96675
666.8, 0.96853
667.0, 0.96965
667.2, 0.97132
667.4, 0.97185
667.6, 0.97307
667.8, 0.9729
668.0, 0.97404
668.2, 0.97472
668.4, 0.9741
668.6, 0.97277
668.8, 0.9749
669.0, 0.97649
669.2, 0.97731
669.4, 0.97976
669.6, 0.98229
669.8, 0.98154
670.0, 0.98085
670.2, 0.97944
670.4, 0.97897
670.6, 0.97823
670.8, 0.97696
671.0, 0.97761
671.2, 0.97645
671.4, 0.97732
671.6, 0.97756
671.8, 0.9754
672.0, 0.97581
672.2, 0.97664
672.4, 0.97425
672.6, 0.9765
672.8, 0.9788
673.0, 0.97598
673.2, 0.97785
673.4, 0.97889
673.6, 0.97894
673.8, 0.97799
674.0, 0.97737
674.2, 0.97882
674.4, 0.97837
674.6, 0.97879
674.8, 0.97912
675.0, 0.97846
675.2, 0.97922
675.4, 0.97736
675.6, 0.97781
675.8, 0.97704
676.0, 0.97571
676.2, 0.97459
676.4, 0.97403
676.6, 0.97621
676.8, 0.97625
677.0, 0.97576
677.2, 0.97204
677.4, 0.97116
677.6, 0.97085
677.8, 0.97035
678.0, 0.96984
678.2, 0.96684
678.4, 0.96588
678.6, 0.96522
678.8, 0.96737
679.0, 0.9677
679.2, 0.96447
679.4, 0.9631
679.6, 0.96349
679.8, 0.96403
680.0, 0.96277
680.2, 0.96305
680.4, 0.96239
680.6, 0.96434
680.8, 0.96539
681.0, 0.9647
681.2, 0.96432
681.4, 0.96671
681.6, 0.9664
681.8, 0.96613
682.0, 0.96655
682.2, 0.96647
682.4, 0.9652
682.6, 0.96457
682.8, 0.96318
683.0, 0.9613
683.2, 0.96341
683.4, 0.96362
683.6, 0.96552
683.8, 0.96667
684.0, 0.96622
684.2, 0.96645
684.4, 0.96426
684.6, 0.96388
684.8, 0.96823
685.0, 0.96898
685.2, 0.96672
685.4, 0.97033
685.6, 0.97039
685.8, 0.97123
686.0, 0.97199
686.2, 0.97373
686.4, 0.97278
686.6, 0.97348
686.8, 0.97193
687.0, 0.97321
687.2, 0.97408
687.4, 0.9733
687.6, 0.97367
687.8, 0.97614
688.0, 0.97606
688.2, 0.97422
688.4, 0.97559
688.6, 0.97956
688.8, 0.98059
689.0, 0.97915
689.2, 0.97794
689.4, 0.97957
689.6, 0.98063
689.8, 0.98069
690.0, 0.97969
690.2, 0.97875
690.4, 0.97919
690.6, 0.9794
690.8, 0.9798
691.0, 0.9778
691.2, 0.97731
691.4, 0.97885
691.6, 0.97746
691.8, 0.9755
692.0, 0.97537
692.2, 0.97629
692.4, 0.97994
692.6, 0.98087
692.8, 0.98137
693.0, 0.98143
693.2, 0.98074
693.4, 0.97649
693.6, 0.97683
693.8, 0.97587
694.0, 0.97649
694.2, 0.97458
694.4, 0.97501
694.6, 0.97603
694.8, 0.97516
695.0, 0.97533
695.2, 0.97751
695.4, 0.97642
695.6, 0.97328
695.8, 0.97246
696.0, 0.97195
696.2, 0.97045
696.4, 0.96874
696.6, 0.96938
696.8, 0.97087
697.0, 0.97134
697.2, 0.97017
697.4, 0.96969
697.6, 0.96852
697.8, 0.96786
698.0, 0.9672
698.2, 0.96754
698.4, 0.96732
698.6, 0.96667
698.8, 0.96468
699.0, 0.96321
699.2, 0.96185
699.4, 0.96331
699.6, 0.96286
699.8, 0.96336
700.0, 0.96484
700.2, 0.96545
700.4, 0.9646
700.6, 0.96513
700.8, 0.96419
701.0, 0.96411
701.2, 0.9647
701.4, 0.96587
701.6, 0.96634
701.8, 0.96444
702.0, 0.96488
702.2, 0.96654
702.4, 0.96781
702.6, 0.96701
702.8, 0.96585
703.0, 0.96694
703.2, 0.96463
703.4, 0.96425
703.6, 0.96553
703.8, 0.96586
704.0, 0.96343
704.2, 0.96055
704.4, 0.96098
704.6, 0.96085
704.8, 0.96156
705.0, 0.96102
705.2, 0.96206
705.4, 0.96499
705.6, 0.96444
705.8, 0.9651
706.0, 0.9675
706.2, 0.96628
706.4, 0.9646
706.6, 0.96745
706.8, 0.96904
707.0, 0.9682
707.2, 0.96705
707.4, 0.96799
707.6, 0.96908
707.8, 0.97063
708.0, 0.9702
708.2, 0.96891
708.4, 0.96876
708.6, 0.96691
708.8, 0.96868
709.0, 0.9702
709.2, 0.97042
709.4, 0.97315
709.6, 0.97203
709.8, 0.96902
710.0, 0.97113
710.2, 0.97002
710.4, 0.97053
710.6, 0.96814
710.8, 0.96918
711.0, 0.97184
711.2, 0.97181
711.4, 0.97214
711.6, 0.97206
711.8, 0.97151
712.0, 0.97221
712.2, 0.97354
712.4, 0.97199
712.6, 0.97148
712.8, 0.97312
713.0, 0.97323
713.2, 0.97246
713.4, 0.97277
713.6, 0.97491
713.8, 0.97391
714.0, 0.97191
714.2, 0.97046
714.4, 0.97126
714.6, 0.97148
714.8, 0.97038
715.0, 0.97201
715.2, 0.97094
715.4, 0.9699
715.6, 0.96918
715.8, 0.96986
716.0, 0.96874
716.2, 0.96756
716.4, 0.96907
716.6, 0.96948
716.8, 0.96984
717.0, 0.97009
717.2, 0.97226
717.4, 0.97268
717.6, 0.97204
717.8, 0.97123
718.0, 0.97066
718.2, 0.97111
718.4, 0.97338
718.6, 0.97009
718.8, 0.97016
719.0, 0.97349
719.2, 0.9734
719.4, 0.96997
719.6, 0.97042
719.8, 0.97398
720.0, 0.97352
720.2, 0.97326
720.4, 0.97229
720.6, 0.97293
720.8, 0.97357
721.0, 0.97564
721.2, 0.97352
721.4, 0.97296
721.6, 0.97136
721.8, 0.97142
722.0, 0.97444
722.2, 0.97131
722.4, 0.96796
722.6, 0.97003
722.8, 0.97365
723.0, 0.97681
723.2, 0.97454
723.4, 0.97461
723.6, 0.97517
723.8, 0.97371
724.0, 0.96948
724.2, 0.97069
724.4, 0.97206
724.6, 0.97405
724.8, 0.97504
725.0, 0.97503
725.2, 0.97473
725.4, 0.97213
725.6, 0.97073
725.8, 0.9735
726.0, 0.97435
726.2, 0.975
726.4, 0.97179
726.6, 0.9706
726.8, 0.97254
727.0, 0.97412
727.2, 0.97596
727.4, 0.9756
727.6, 0.97478
727.8, 0.97237
728.0, 0.97021
728.2, 0.96964
728.4, 0.97346
728.6, 0.97469
728.8, 0.97488
729.0, 0.97309
729.2, 0.97154
729.4, 0.96904
729.6, 0.96832
729.8, 0.97036
730.0, 0.97071
730.2, 0.97062
730.4, 0.97326
730.6, 0.97324
730.8, 0.97269
731.0, 0.97166
731.2, 0.96625
731.4, 0.9638
731.6, 0.9676
731.8, 0.97016
732.0, 0.9716
732.2, 0.97004
732.4, 0.96928
732.6, 0.9672
732.8, 0.96951
733.0, 0.96756
733.2, 0.96755
733.4, 0.96808
733.6, 0.97019
733.8, 0.96732
734.0, 0.96643
734.2, 0.96465
734.4, 0.96464
734.6, 0.96847
734.8, 0.96997
735.0, 0.97178
735.2, 0.96873
735.4, 0.96707
735.6, 0.96655
735.8, 0.96895
736.0, 0.96823
736.2, 0.9666
736.4, 0.96544
736.6, 0.96637
736.8, 0.9669
737.0, 0.96621
737.2, 0.96729
737.4, 0.96666
737.6, 0.96609
737.8, 0.96502
738.0, 0.96331
738.2, 0.96384
738.4, 0.96348
738.6, 0.96596
738.8, 0.96717
739.0, 0.96721
739.2, 0.96795
739.4, 0.96807
739.6, 0.97045
739.8, 0.97252
740.0, 0.97213
740.2, 0.97119
740.4, 0.97144
740.6, 0.9698
740.8, 0.97269
741.0, 0.97349
741.2, 0.97146
741.4, 0.96928
741.6, 0.97002
741.8, 0.97115
742.0, 0.9707
742.2, 0.97183
742.4, 0.97282
742.6, 0.97179
742.8, 0.97141
743.0, 0.97205
743.2, 0.97351
743.4, 0.97638
743.6, 0.97497
743.8, 0.97398
744.0, 0.97629
744.2, 0.97637
744.4, 0.97573
744.6, 0.97456
744.8, 0.9738
745.0, 0.97136
745.2, 0.97145
745.4, 0.9717
745.6, 0.97207
745.8, 0.97206
746.0, 0.97207
746.2, 0.97345
746.4, 0.97342
746.6, 0.97424
746.8, 0.97774
747.0, 0.97781
747.2, 0.97936
747.4, 0.97886
747.6, 0.97531
747.8, 0.97513
748.0, 0.97539
748.2, 0.97536
748.4, 0.97508
748.6, 0.97558
748.8, 0.97595
749.0, 0.97582
749.2, 0.97481
749.4, 0.97608
749.6, 0.97614
749.8, 0.97794
750.0, 0.97709
750.2, 0.97605
750.4, 0.97574
750.6, 0.97636
750.8, 0.97395
751.0, 0.97208
751.2, 0.97211
751.4, 0.971
751.6, 0.96934
751.8, 0.97026
752.0, 0.96821
752.2, 0.97012
752.4, 0.97094
752.6, 0.97153
752.8, 0.97295
753.0, 0.97226
753.2, 0.97257
753.4, 0.971
753.6, 0.97179
753.8, 0.9707
754.0, 0.96712
754.2, 0.96777
754.4, 0.96858
754.6, 0.96968
754.8, 0.97087
755.0, 0.97086
755.2, 0.97041
755.4, 0.97001
755.6, 0.97044
755.8, 0.9687
756.0, 0.9694
756.2, 0.96781
756.4, 0.96802
756.6, 0.96925
756.8, 0.97005
757.0, 0.97021
757.2, 0.97034
757.4, 0.97052
757.6, 0.9697
757.8, 0.96911
758.0, 0.96735
758.2, 0.9649
758.4, 0.96628
758.6, 0.96655
758.8, 0.96629
759.0, 0.96668
759.2, 0.96697
759.4, 0.96617
759.6, 0.9665
759.8, 0.96991
760.0, 0.97051
760.2, 0.97054
760.4, 0.97281
760.6, 0.97157
760.8, 0.97036
761.0, 0.96925
761.2, 0.96852
761.4, 0.967
761.6, 0.96577
761.8, 0.96594
762.0, 0.96645
762.2, 0.96733
762.4, 0.96742
762.6, 0.96633
762.8, 0.96703
763.0, 0.96712
763.2, 0.96737
763.4, 0.96805
763.6, 0.96876
763.8, 0.97005
764.0, 0.96987
764.2, 0.96962
764.4, 0.96919
764.6, 0.96941
764.8, 0.96812
765.0, 0.96901
765.2, 0.96691
765.4, 0.96692
765.6, 0.96672
765.8, 0.96541
766.0, 0.96552
766.2, 0.96767
766.4, 0.9677
766.6, 0.96881
766.8, 0.97119
767.0, 0.97302
767.2, 0.97191
767.4, 0.97003
767.6, 0.97014
767.8, 0.97302
768.0, 0.97429
768.2, 0.97462
768.4, 0.97396
768.6, 0.97252
768.8, 0.97198
769.0, 0.9707
769.2, 0.97241
769.4, 0.97452
769.6, 0.97428
769.8, 0.97353
770.0, 0.9746
770.2, 0.97449
770.4, 0.97395
770.6, 0.97142
770.8, 0.97128
771.0, 0.9725
771.2, 0.97268
771.4, 0.97233
771.6, 0.97222
771.8, 0.97201
772.0, 0.97233
772.2, 0.9725
772.4, 0.97229
772.6, 0.97
772.8, 0.96852
773.0, 0.96646
773.2, 0.96663
773.4, 0.9691
773.6, 0.97065
773.8, 0.97053
774.0, 0.97036
774.2, 0.9686
774.4, 0.96749
774.6, 0.96717
774.8, 0.96743
775.0, 0.96703
775.2, 0.96903
775.4, 0.96863
775.6, 0.96929
775.8, 0.9688
776.0, 0.97103
776.2, 0.96905
776.4, 0.96859
776.6, 0.96803
776.8, 0.96851
777.0, 0.96926
777.2, 0.97012
777.4, 0.96833
777.6, 0.96711
777.8, 0.9656
778.0, 0.96487
778.2, 0.9658
778.4, 0.96674
778.6, 0.9666
778.8, 0.96727
779.0, 0.96531
779.2, 0.96452
779.4, 0.96523
779.6, 0.96751
779.8, 0.96875
780.0, 0.96946
780.2, 0.96774
780.4, 0.96415
780.6, 0.96582
780.8, 0.96765
781.0, 0.96586
781.2, 0.96498
781.4, 0.96424
781.6, 0.96623
781.8, 0.96715
782.0, 0.96751
782.2, 0.96662
782.4, 0.96473
782.6, 0.96694
782.8, 0.96964
783.0, 0.96701
783.2, 0.96782
783.4, 0.97051
783.6, 0.97194
783.8, 0.97311
784.0, 0.97253
784.2, 0.97339
784.4, 0.97255
784.6, 0.97
784.8, 0.96974
785.0, 0.97138
785.2, 0.97257
785.4, 0.97209
785.6, 0.97146
785.8, 0.97219
786.0, 0.97146
786.2, 0.96947
786.4, 0.96982
786.6, 0.96901
786.8, 0.9675
787.0, 0.96609
787.2, 0.96591
787.4, 0.9673
787.6, 0.97058
787.8, 0.96841
788.0, 0.9693
788.2, 0.9687
788.4, 0.96869
788.6, 0.97239
788.8, 0.97441
789.0, 0.97511
789.2, 0.97513
789.4, 0.97229
789.6, 0.97358
789.8, 0.97592
790.0, 0.97807
790.2, 0.97563
790.4, 0.97328
790.6, 0.97033
790.8, 0.96791
791.0, 0.97026
791.2, 0.97145
791.4, 0.968
791.6, 0.96655
791.8, 0.96715
792.0, 0.96614
792.2, 0.96721
792.4, 0.97187
792.6, 0.97363
792.8, 0.97293
793.0, 0.97283
793.2, 0.97302
793.4, 0.97154
793.6, 0.96961
793.8, 0.96923
794.0, 0.97118
794.2, 0.97245
794.4, 0.97192
794.6, 0.9726
794.8, 0.97261
795.0, 0.97083
795.2, 0.96812
795.4, 0.96677
795.6, 0.96615
795.8, 0.96921
796.0, 0.97192
796.2, 0.97005
796.4, 0.96962
796.6, 0.97195
796.8, 0.97292
797.0, 0.97116
797.2, 0.97003
797.4, 0.96983
797.6, 0.97042
797.8, 0.96988
798.0, 0.97077
798.2, 0.97036
798.4, 0.97006
798.6, 0.96929
798.8, 0.96864
799.0, 0.96748
799.2, 0.96616
799.4, 0.96516
799.6, 0.96739
799.8, 0.96743
800.0, 0.96861
800.2, 0.96947
800.4, 0.96916
800.6, 0.96726
800.8, 0.96848
801.0, 0.96955
801.2, 0.96831
801.4, 0.96646
801.6, 0.96369
801.8, 0.96265
802.0, 0.96204
802.2, 0.9603
802.4, 0.96196
802.6, 0.96387
802.8, 0.96418
803.0, 0.96501
803.2, 0.96398
803.4, 0.96596
803.6, 0.96754
803.8, 0.96707
804.0, 0.97002
804.2, 0.97087
804.4, 0.9714
804.6, 0.96985
804.8, 0.97074
805.0, 0.97223
805.2, 0.96811
805.4, 0.96516
805.6, 0.96553
805.8, 0.96696
806.0, 0.96612
806.2, 0.96686
806.4, 0.96826
806.6, 0.97004
806.8, 0.96907
807.0, 0.96965
807.2, 0.96944
807.4, 0.96983
807.6, 0.97026
807.8, 0.97133
808.0, 0.97177
808.2, 0.97202
808.4, 0.97119
808.6, 0.96983
808.8, 0.96945
809.0, 0.97112
809.2, 0.97015
809.4, 0.96992
809.6, 0.97095
809.8, 0.97228
810.0, 0.97464
810.2, 0.97101
810.4, 0.97033
810.6, 0.97128
810.8, 0.9721
811.0, 0.97054
811.2, 0.96834
811.4, 0.96981
811.6, 0.97028
811.8, 0.96939
812.0, 0.96852
812.2, 0.97082
812.4, 0.97171
812.6, 0.97188
812.8, 0.97422
813.0, 0.97614
813.2, 0.97501
813.4, 0.97754
813.6, 0.97859
813.8, 0.98019
814.0, 0.9784
814.2, 0.97987
814.4, 0.98065
814.6, 0.97832
814.8, 0.97685
815.0, 0.97858
815.2, 0.97894
815.4, 0.97578
815.6, 0.97428
815.8, 0.97395
816.0, 0.97374
816.2, 0.97505
816.4, 0.97558
816.6, 0.97646
816.8, 0.977
817.0, 0.97921
817.2, 0.97962
817.4, 0.97984
817.6, 0.9797
817.8, 0.98016
818.0, 0.97841
818.2, 0.97646
818.4, 0.97338
818.6, 0.97565
818.8, 0.97546
819.0, 0.97649
819.2, 0.97813
819.4, 0.97726
819.6, 0.97541
819.8, 0.97419
820.0, 0.97204
820.2, 0.97178
820.4, 0.97357
820.6, 0.97626
820.8, 0.97469
821.0, 0.97168
821.2, 0.96976
821.4, 0.9702
821.6, 0.96862
821.8, 0.96762
822.0, 0.96804
822.2, 0.96752
822.4, 0.96937
822.6, 0.96962
822.8, 0.97153
823.0, 0.97227
823.2, 0.97139
823.4, 0.9706
823.6, 0.97074
823.8, 0.9686
824.0, 0.96825
824.2, 0.96979
824.4, 0.97154
824.6, 0.97167
824.8, 0.96968
825.0, 0.96714
825.2, 0.96744
825.4, 0.96817
825.6, 0.96659
825.8, 0.96585
826.0, 0.96519
826.2, 0.96476
826.4, 0.96392
826.6, 0.96541
826.8, 0.96522
827.0, 0.96835
827.2, 0.97021
827.4, 0.97169
827.6, 0.97177
827.8, 0.96988
828.0, 0.96795
828.2, 0.96651
828.4, 0.96417
828.6, 0.96618
828.8, 0.96723
829.0, 0.96874
829.2, 0.9679
829.4, 0.96844
829.6, 0.96783
829.8, 0.96686
830.0, 0.96578
830.2, 0.96438
830.4, 0.9626
830.6, 0.96235
830.8, 0.96145
831.0, 0.96303
831.2, 0.96554
831.4, 0.96769
831.6, 0.96771
831.8, 0.96594
832.0, 0.96402
832.2, 0.96304
832.4, 0.96127
832.6, 0.96065
832.8, 0.96163
833.0, 0.96405
833.2, 0.96658
833.4, 0.9676
833.6, 0.96765
833.8, 0.96861
834.0, 0.97024
834.2, 0.97097
834.4, 0.97311
834.6, 0.97698
834.8, 0.97818
835.0, 0.9767
835.2, 0.97614
835.4, 0.97536
835.6, 0.97435
835.8, 0.97298
836.0, 0.97149
836.2, 0.9751
836.4, 0.97444
836.6, 0.9734
836.8, 0.97291
837.0, 0.97507
837.2, 0.97462
837.4, 0.97351
837.6, 0.97316
837.8, 0.97251
838.0, 0.97301
838.2, 0.97464
838.4, 0.97538
838.6, 0.9761
838.8, 0.97338
839.0, 0.97551
839.2, 0.9768
839.4, 0.97721
839.6, 0.97371
839.8, 0.97176
840.0, 0.97364
840.2, 0.97604
840.4, 0.97612
840.6, 0.97543
840.8, 0.97579
841.0, 0.97629
841.2, 0.97791
841.4, 0.97737
841.6, 0.97807
841.8, 0.97845
842.0, 0.97937
842.2, 0.97818
842.4, 0.9778
842.6, 0.97614
842.8, 0.97527
843.0, 0.97751
843.2, 0.97859
843.4, 0.97886
843.6, 0.98053
843.8, 0.97782
844.0, 0.97512
844.2, 0.97621
844.4, 0.97556
844.6, 0.97605
844.8, 0.97785
845.0, 0.98045
845.2, 0.98179
845.4, 0.98044
845.6, 0.9769
845.8, 0.97244
846.0, 0.97157
846.2, 0.97062
846.4, 0.97242
846.6, 0.97347
846.8, 0.97287
847.0, 0.97427
847.2, 0.97693
847.4, 0.97631
847.6, 0.9759
847.8, 0.97352
848.0, 0.97136
848.2, 0.9683
848.4, 0.96888
848.6, 0.97177
848.8, 0.97132
849.0, 0.97018
849.2, 0.96972
849.4, 0.96846
849.6, 0.96855
849.8, 0.96669
850.0, 0.96986
850.2, 0.97112
850.4, 0.97072
850.6, 0.97128
850.8, 0.9712
851.0, 0.97127
851.2, 0.96964
851.4, 0.96805
851.6, 0.968
851.8, 0.9676
852.0, 0.96957
852.2, 0.97132
852.4, 0.97027
852.6, 0.96946
852.8, 0.97048
853.0, 0.96986
853.2, 0.96813
853.4, 0.96641
853.6, 0.96425
853.8, 0.96627
854.0, 0.96791
854.2, 0.96688
854.4, 0.9689
854.6, 0.97129
854.8, 0.97284
855.0, 0.9754
855.2, 0.97342
855.4, 0.97156
855.6, 0.97148
855.8, 0.97102
856.0, 0.97161
856.2, 0.97146
856.4, 0.97241
856.6, 0.9743
856.8, 0.97128
857.0, 0.97026
857.2, 0.97068
857.4, 0.97232
857.6, 0.9714
857.8, 0.97156
858.0, 0.9708
858.2, 0.97074
858.4, 0.97003
858.6, 0.97109
858.8, 0.97158
859.0, 0.97435
859.2, 0.97398
859.4, 0.97259
859.6, 0.97337
859.8, 0.97547
860.0, 0.97689
860.2, 0.97781
860.4, 0.97914
860.6, 0.97918
860.8, 0.97657
861.0, 0.97646
861.2, 0.97739
861.4, 0.97625
861.6, 0.97654
861.8, 0.97812
862.0, 0.97818
862.2, 0.97815
862.4, 0.97754
862.6, 0.97757
862.8, 0.97656
863.0, 0.97545
863.2, 0.97337
863.4, 0.97415
863.6, 0.97472
863.8, 0.97661
864.0, 0.97865
864.2, 0.97996
864.4, 0.97966
864.6, 0.97974
864.8, 0.97892
865.0, 0.98153
865.2, 0.97879
865.4, 0.98015
865.6, 0.98009
865.8, 0.97987
866.0, 0.97999
866.2, 0.978
866.4, 0.97805
866.6, 0.97852
866.8, 0.97947
867.0, 0.97767
867.2, 0.97749
867.4, 0.97642
867.6, 0.97749
867.8, 0.97809
868.0, 0.97597
868.2, 0.97798
868.4, 0.9817
868.6, 0.98044
868.8, 0.98074
869.0, 0.98298
869.2, 0.98263
869.4, 0.98222
869.6, 0.98047
869.8, 0.97912
870.0, 0.98261
870.2, 0.98587
870.4, 0.98506
870.6, 0.98677
870.8, 0.98774
871.0, 0.98535
871.2, 0.98698
871.4, 0.98648
871.6, 0.98452
871.8, 0.98431
872.0, 0.98449
872.2, 0.98198
872.4, 0.98274
872.6, 0.98192
872.8, 0.98092
873.0, 0.97975
873.2, 0.98003
873.4, 0.98209
873.6, 0.98178
873.8, 0.98121
874.0, 0.98256
874.2, 0.98339
874.4, 0.98326
874.6, 0.98127
874.8, 0.98097
875.0, 0.98196
875.2, 0.98261
875.4, 0.98111
875.6, 0.98131
875.8, 0.98162
876.0, 0.9828
876.2, 0.98216
876.4, 0.98203
876.6, 0.98241
876.8, 0.98013
877.0, 0.98039
877.2, 0.9799
877.4, 0.98071
877.6, 0.98003
877.8, 0.9791
878.0, 0.97873
878.2, 0.97748
878.4, 0.9777
878.6, 0.97575
878.8, 0.97499
879.0, 0.97501
879.2, 0.97698
879.4, 0.98
879.6, 0.97761
879.8, 0.97519
880.0, 0.97576
880.2, 0.97614
880.4, 0.97797
880.6, 0.97541
880.8, 0.97283
881.0, 0.97268
881.2, 0.97382
881.4, 0.97513
881.6, 0.97511
881.8, 0.97528
882.0, 0.97395
882.2, 0.97488
882.4, 0.97625
882.6, 0.974
882.8, 0.97287
883.0, 0.97328
883.2, 0.97175
883.4, 0.97301
883.6, 0.97161
883.8, 0.97034
884.0, 0.9725
884.2, 0.97527
884.4, 0.97668
884.6, 0.9794
884.8, 0.98021
885.0, 0.97946
885.2, 0.98033
885.4, 0.98074
885.6, 0.97993
885.8, 0.9801
886.0, 0.98191
886.2, 0.97914
886.4, 0.97596
886.6, 0.97525
886.8, 0.97479
887.0, 0.9771
887.2, 0.97644
887.4, 0.97699
887.6, 0.97895
887.8, 0.9786
888.0, 0.97762
888.2, 0.97647
888.4, 0.97565
888.6, 0.97789
888.8, 0.98084
889.0, 0.98381
889.2, 0.98276
889.4, 0.98345
889.6, 0.98368
889.8, 0.98286
890.0, 0.98067
890.2, 0.9809
890.4, 0.98194
890.6, 0.98178
890.8, 0.98196
891.0, 0.98342
891.2, 0.98185
891.4, 0.97988
891.6, 0.98151
891.8, 0.98298
892.0, 0.98113
892.2, 0.9805
892.4, 0.98385
892.6, 0.98279
892.8, 0.98397
893.0, 0.98242
893.2, 0.97989
893.4, 0.97969
893.6, 0.98257
893.8, 0.98856
894.0, 0.99212
894.2, 0.99377
894.4, 0.99252
894.6, 0.9927
894.8, 0.99193
895.0, 0.9906
895.2, 0.98835
895.4, 0.98665
895.6, 0.98619
895.8, 0.98421
896.0, 0.98205
896.2, 0.98369
896.4, 0.98558
896.6, 0.98684
896.8, 0.98665
897.0, 0.98626
897.2, 0.98379
897.4, 0.98682
897.6, 0.98688
897.8, 0.9888
898.0, 0.99121
898.2, 0.9872
898.4, 0.98542
898.6, 0.98186
898.8, 0.98056
899.0, 0.98363
899.2, 0.9832
899.4, 0.98383
899.6, 0.98216
899.8, 0.98302
900.0, 0.98472
900.2, 0.98521
900.4, 0.98338
900.6, 0.9799
900.8, 0.97924
901.0, 0.97826
901.2, 0.97693
901.4, 0.97569
901.6, 0.97439
901.8, 0.97293
902.0, 0.97623
902.2, 0.97769
902.4, 0.97729
902.6, 0.97783
902.8, 0.97712
903.0, 0.9761
903.2, 0.97638
903.4, 0.97636
903.6, 0.97494
903.8, 0.97593
904.0, 0.97652
904.2, 0.97876
904.4, 0.98129
904.6, 0.98029
904.8, 0.97704
905.0, 0.97247
905.2, 0.97285
905.4, 0.97461
905.6, 0.9743
905.8, 0.97241
906.0, 0.97273
906.2, 0.9731
906.4, 0.97356
906.6, 0.97425
906.8, 0.97513
907.0, 0.97393
907.2, 0.97459
907.4, 0.97763
907.6, 0.97466
907.8, 0.97359
908.0, 0.97352
908.2, 0.97234
908.4, 0.97429
908.6, 0.97481
908.8, 0.97381
909.0, 0.97713
909.2, 0.97857
909.4, 0.9802
909.6, 0.97802
909.8, 0.97476
910.0, 0.97355
910.2, 0.97313
910.4, 0.9746
910.6, 0.9698
910.8, 0.96899
911.0, 0.96991
911.2, 0.96964
911.4, 0.96887
911.6, 0.96582
911.8, 0.96418
912.0, 0.96489
912.2, 0.9682
912.4, 0.96904
912.6, 0.96977
912.8, 0.97081
913.0, 0.96901
913.2, 0.96663
913.4, 0.96683
913.6, 0.96739
913.8, 0.96658
914.0, 0.9672
914.2, 0.97109
914.4, 0.97128
914.6, 0.97034
914.8, 0.97081
915.0, 0.97116
915.2, 0.96948
915.4, 0.96741
915.6, 0.96745
915.8, 0.9694
916.0, 0.97132
916.2, 0.971
916.4, 0.9718
916.6, 0.97596
916.8, 0.97421
917.0, 0.97484
917.2, 0.9742
917.4, 0.97126
917.6, 0.97152
917.8, 0.97056
918.0, 0.97256
918.2, 0.97501
918.4, 0.97908
918.6, 0.97957
918.8, 0.98363
919.0, 0.98483
919.2, 0.98062
919.4, 0.9796
919.6, 0.98047
919.8, 0.9834
920.0, 0.98178
920.2, 0.98058
920.4, 0.98217
920.6, 0.98372
920.8, 0.98541
921.0, 0.9894
921.2, 0.98908
921.4, 0.98761
921.6, 0.98715
921.8, 0.98423
922.0, 0.98468
922.2, 0.98282
922.4, 0.98216
922.6, 0.98217
922.8, 0.98172
923.0, 0.98204
923.2, 0.98171
923.4, 0.98276
923.6, 0.98478
923.8, 0.98713
924.0, 0.98949
924.2, 0.98945
924.4, 0.98959
924.6, 0.98938
924.8, 0.99129
925.0, 0.98845
925.2, 0.98885
925.4, 0.99015
925.6, 0.98738
925.8, 0.98594
926.0, 0.98507
926.2, 0.98268
926.4, 0.98134
926.6, 0.98001
926.8, 0.98179
927.0, 0.98309
927.2, 0.98195
927.4, 0.98334
927.6, 0.98234
927.8, 0.98407
928.0, 0.98408
928.2, 0.98335
928.4, 0.98509
928.6, 0.98309
928.8, 0.98167
929.0, 0.98302
929.2, 0.9835
929.4, 0.979
929.6, 0.97714
929.8, 0.97874
930.0, 0.98071
930.2, 0.98194
930.4, 0.98617
930.6, 0.98578
930.8, 0.98575
931.0, 0.98254
931.2, 0.98101
931.4, 0.97945
931.6, 0.97914
931.8, 0.97463
932.0, 0.97894
932.2, 0.98001
932.4, 0.97996
932.6, 0.97826
932.8, 0.98086
933.0, 0.97896
933.2, 0.97994
933.4, 0.97825
933.6, 0.97629
933.8, 0.97725
934.0, 0.97211
934.2, 0.97817
934.4, 0.97683
934.6, 0.9741
934.8, 0.97816
935.0, 0.98033
935.2, 0.98409
935.4, 0.98093
935.6, 0.9774
935.8, 0.97875
936.0, 0.9735
936.2, 0.97509
936.4, 0.97626
936.6, 0.97703
936.8, 0.97755
937.0, 0.97955
937.2, 0.97501
937.4, 0.97598
937.6, 0.97785
937.8, 0.97483
938.0, 0.97528
938.2, 0.96886
938.4, 0.97181
938.6, 0.97494
938.8, 0.97034
939.0, 0.97165
939.2, 0.96891
939.4, 0.96977
939.6, 0.9713
939.8, 0.97351
940.0, 0.97177
940.2, 0.97591
940.4, 0.97668
940.6, 0.9747
940.8, 0.97364
941.0, 0.9727
941.2, 0.97239
941.4, 0.97349
941.6, 0.97489
941.8, 0.9758
942.0, 0.97677
942.2, 0.97759
942.4, 0.97665
942.6, 0.9753
942.8, 0.97394
943.0, 0.97733
943.2, 0.98044
943.4, 0.98175
943.6, 0.98147
943.8, 0.9811
944.0, 0.98117
944.2, 0.98266
944.4, 0.98286
944.6, 0.98264
944.8, 0.98135
945.0, 0.9786
945.2, 0.97604
945.4, 0.97663
945.6, 0.97547
945.8, 0.97541
946.0, 0.97652
946.2, 0.98006
946.4, 0.98021
946.6, 0.9811
946.8, 0.97822
947.0, 0.97933
947.2, 0.97785
947.4, 0.97557
947.6, 0.97827
947.8, 0.97958
948.0, 0.97945
948.2, 0.979
948.4, 0.9801
948.6, 0.98074
948.8, 0.97901
949.0, 0.97746
949.2, 0.97744
949.4, 0.97984
949.6, 0.9833
949.8, 0.98096
950.0, 0.97889